Phone timestamp;sensor timestamp [ns];channel 0;channel 1;channel 2;ambient
2025-01-20T22:31:13.918;790698649821545600;-243776;-246506;-304885;-472731;
2025-01-20T22:31:13.936;790698649839727360;-243615;-246319;-304784;-472688;
2025-01-20T22:31:13.954;790698649857909248;-243630;-246239;-304727;-472780;
2025-01-20T22:31:13.972;790698649876091008;-243531;-246212;-304666;-472781;
2025-01-20T22:31:13.990;790698649894272896;-243459;-246165;-304629;-472770;
2025-01-20T22:31:14.008;790698649912454656;-243369;-246084;-304508;-472741;
2025-01-20T22:31:14.027;790698649930636544;-243238;-246003;-304445;-472729;
2025-01-20T22:31:14.045;790698649948818304;-243133;-245904;-304352;-472753;
2025-01-20T22:31:14.063;790698649967000192;-242946;-245819;-304194;-472694;
2025-01-20T22:31:14.081;790698649985181952;-242897;-245687;-304138;-472736;
2025-01-20T22:31:14.099;790698650003363840;-242821;-245768;-304203;-472732;
2025-01-20T22:31:14.118;790698650021545600;-242842;-245850;-304285;-472697;
2025-01-20T22:31:14.136;790698650039727360;-243081;-246121;-304590;-472754;
2025-01-20T22:31:14.154;790698650057909248;-243370;-246611;-304990;-472719;
2025-01-20T22:31:14.172;790698650076091008;-243747;-247025;-305353;-472677;
2025-01-20T22:31:14.190;790698650094272896;-244126;-247456;-305774;-472746;
2025-01-20T22:31:14.208;790698650112454656;-244449;-247792;-306009;-472719;
2025-01-20T22:31:14.227;790698650130636544;-244614;-247985;-306202;-472720;
2025-01-20T22:31:14.245;790698650148818304;-244717;-248101;-306302;-472744;
2025-01-20T22:31:14.263;790698650167000192;-244805;-248202;-306270;-472787;
2025-01-20T22:31:14.281;790698650185181952;-244715;-248160;-306212;-472801;
2025-01-20T22:31:14.299;790698650203363840;-244699;-248118;-306165;-472791;
2025-01-20T22:31:14.318;790698650221545600;-244604;-248013;-306031;-472749;
2025-01-20T22:31:14.336;790698650239727360;-244481;-247932;-305865;-472719;
2025-01-20T22:31:14.354;790698650257909248;-244367;-247795;-305824;-472686;
2025-01-20T22:31:14.372;790698650276091008;-244279;-247712;-305713;-472713;
2025-01-20T22:31:14.390;790698650294272896;-244138;-247543;-305553;-472729;
2025-01-20T22:31:14.408;790698650312454656;-244094;-247424;-305535;-472856;
2025-01-20T22:31:14.427;790698650330636544;-244000;-247319;-305455;-472788;
2025-01-20T22:31:14.445;790698650348818304;-243896;-247353;-305436;-472784;
2025-01-20T22:31:14.463;790698650367000192;-243823;-247244;-305406;-472792;
2025-01-20T22:31:14.481;790698650385181952;-243730;-247179;-305313;-472748;
2025-01-20T22:31:14.499;790698650403363840;-243460;-246973;-305145;-472762;
2025-01-20T22:31:14.518;790698650421545600;-243319;-246890;-304941;-472726;
2025-01-20T22:31:14.536;790698650439727360;-243155;-246656;-304796;-472736;
2025-01-20T22:31:14.554;790698650457909248;-243004;-246460;-304693;-472722;
2025-01-20T22:31:14.572;790698650476091008;-243067;-246613;-304817;-472711;
2025-01-20T22:31:14.590;790698650494272896;-243234;-246867;-305053;-472759;
2025-01-20T22:31:14.608;790698650512454656;-243536;-247234;-305456;-472736;
2025-01-20T22:31:14.627;790698650530636544;-243894;-247677;-305890;-472738;
2025-01-20T22:31:14.645;790698650548818304;-244278;-248071;-306334;-472774;
2025-01-20T22:31:14.663;790698650567000234;-244538;-248379;-306526;-472724;
2025-01-20T22:31:14.681;790698650585189248;-244747;-248604;-306765;-472757;
2025-01-20T22:31:14.699;790698650603378304;-244877;-248795;-306873;-472782;
2025-01-20T22:31:14.718;790698650621567488;-244876;-248725;-306801;-472716;
2025-01-20T22:31:14.736;790698650639756544;-244829;-248768;-306790;-472706;
2025-01-20T22:31:14.754;790698650657945600;-244740;-248660;-306712;-472749;
2025-01-20T22:31:14.772;790698650676134656;-244621;-248540;-306539;-472770;
2025-01-20T22:31:14.790;790698650694323840;-244576;-248456;-306439;-472840;
2025-01-20T22:31:14.808;790698650712512896;-244385;-248260;-306220;-472787;
2025-01-20T22:31:14.827;790698650730701952;-244174;-248126;-306083;-472762;
2025-01-20T22:31:14.845;790698650748891008;-244070;-247912;-305947;-472720;
2025-01-20T22:31:14.863;790698650767080192;-244033;-247809;-305854;-472720;
2025-01-20T22:31:14.881;790698650785269248;-243846;-247608;-305696;-472683;
2025-01-20T22:31:14.899;790698650803458304;-243789;-247592;-305655;-472760;
2025-01-20T22:31:14.918;790698650821647488;-243646;-247443;-305520;-472686;
2025-01-20T22:31:14.936;790698650839836544;-243530;-247308;-305411;-472703;
2025-01-20T22:31:14.954;790698650858025600;-243411;-247201;-305316;-472705;
2025-01-20T22:31:14.972;790698650876214656;-243286;-247085;-305236;-472717;
2025-01-20T22:31:14.990;790698650894403840;-243109;-246889;-305126;-472766;
2025-01-20T22:31:15.009;790698650912592896;-242968;-246792;-305008;-472796;
2025-01-20T22:31:15.027;790698650930781952;-242944;-246665;-304970;-472826;
2025-01-20T22:31:15.045;790698650948971136;-242936;-246752;-305004;-472779;
2025-01-20T22:31:15.063;790698650967160192;-243085;-247051;-305251;-472749;
2025-01-20T22:31:15.081;790698650985349248;-243317;-247371;-305612;-472755;
2025-01-20T22:31:15.099;790698651003538304;-243673;-247615;-305954;-472832;
2025-01-20T22:31:15.118;790698651021727488;-243938;-247976;-306194;-472775;
2025-01-20T22:31:15.136;790698651039916544;-244163;-248226;-306440;-472760;
2025-01-20T22:31:15.154;790698651058105600;-244291;-248430;-306620;-472705;
2025-01-20T22:31:15.172;790698651076294656;-244391;-248513;-306754;-472748;
2025-01-20T22:31:15.190;790698651094483840;-244483;-248538;-306742;-472779;
2025-01-20T22:31:15.209;790698651112672896;-244428;-248516;-306644;-472777;
2025-01-20T22:31:15.227;790698651130861952;-244306;-248408;-306457;-472738;
2025-01-20T22:31:15.245;790698651149051136;-244190;-248276;-306277;-472743;
2025-01-20T22:31:15.263;790698651167240192;-244057;-248144;-306132;-472724;
2025-01-20T22:31:15.281;790698651185429248;-243830;-247952;-305953;-472710;
2025-01-20T22:31:15.300;790698651203618304;-243715;-247878;-305795;-472762;
2025-01-20T22:31:15.318;790698651221807488;-243615;-247701;-305717;-472771;
2025-01-20T22:31:15.336;790698651239996544;-243451;-247497;-305519;-472745;
2025-01-20T22:31:15.354;790698651258185600;-243264;-247376;-305426;-472755;
2025-01-20T22:31:15.372;790698651276374656;-243168;-247228;-305293;-472754;
2025-01-20T22:31:15.391;790698651294563840;-243079;-247139;-305202;-472768;
2025-01-20T22:31:15.409;790698651312752896;-242885;-247005;-305112;-472732;
2025-01-20T22:31:15.427;790698651330942070;-242702;-246866;-304896;-472719;
2025-01-20T22:31:15.445;790698651349131136;-242676;-246826;-304816;-472749;
2025-01-20T22:31:15.463;790698651367320192;-242457;-246601;-304641;-472756;
2025-01-20T22:31:15.481;790698651385509120;-242302;-246450;-304415;-472745;
2025-01-20T22:31:15.500;790698651403698176;-242095;-246272;-304299;-472791;
2025-01-20T22:31:15.518;790698651421887232;-241876;-246126;-304156;-472700;
2025-01-20T22:31:15.536;790698651440076288;-241892;-246074;-304256;-472747;
2025-01-20T22:31:15.554;790698651458265216;-242039;-246218;-304481;-472692;
2025-01-20T22:31:15.572;790698651476454272;-242332;-246638;-304916;-472804;
2025-01-20T22:31:15.591;790698651494643328;-242650;-246992;-305275;-472768;
2025-01-20T22:31:15.609;790698651512832256;-242939;-247354;-305575;-472699;
2025-01-20T22:31:15.627;790698651531021312;-243204;-247637;-305793;-472743;
2025-01-20T22:31:15.645;790698651549210368;-243339;-247759;-305862;-472765;
2025-01-20T22:31:15.663;790698651567399424;-243409;-247863;-305910;-472787;
2025-01-20T22:31:15.682;790698651585588352;-243408;-247872;-305924;-472773;
2025-01-20T22:31:15.700;790698651603777408;-243349;-247735;-305778;-472762;
2025-01-20T22:31:15.718;790698651621966464;-243310;-247706;-305678;-472767;
2025-01-20T22:31:15.736;790698651640155392;-243138;-247492;-305527;-472754;
2025-01-20T22:31:15.754;790698651658344448;-243048;-247435;-305438;-472784;
2025-01-20T22:31:15.772;790698651676533504;-242783;-247190;-305210;-472721;
2025-01-20T22:31:15.791;790698651694722432;-242708;-247026;-305144;-472793;
2025-01-20T22:31:15.809;790698651712911488;-242540;-246883;-305050;-472697;
2025-01-20T22:31:15.827;790698651731100544;-242381;-246740;-304878;-472712;
2025-01-20T22:31:15.845;790698651749289600;-242288;-246685;-304763;-472699;
2025-01-20T22:31:15.863;790698651767478528;-242240;-246575;-304646;-472733;
2025-01-20T22:31:15.882;790698651785667584;-242181;-246462;-304573;-472758;
2025-01-20T22:31:15.900;790698651803856640;-241987;-246382;-304427;-472744;
2025-01-20T22:31:15.918;790698651822045568;-241830;-246237;-304266;-472721;
2025-01-20T22:31:15.936;790698651840234624;-241656;-246052;-304172;-472700;
2025-01-20T22:31:15.954;790698651858423680;-241443;-245861;-303977;-472688;
2025-01-20T22:31:15.973;790698651876612736;-241300;-245703;-303866;-472746;
2025-01-20T22:31:15.991;790698651894801664;-241141;-245491;-303670;-472713;
2025-01-20T22:31:16.009;790698651912990720;-241041;-245401;-303569;-472706;
2025-01-20T22:31:16.027;790698651931179776;-241004;-245367;-303593;-472719;
2025-01-20T22:31:16.045;790698651949368704;-241187;-245580;-303867;-472711;
2025-01-20T22:31:16.064;790698651967557760;-241551;-245926;-304227;-472694;
2025-01-20T22:31:16.082;790698651985746816;-241818;-246231;-304519;-472695;
2025-01-20T22:31:16.100;790698652003935744;-242078;-246602;-304778;-472727;
2025-01-20T22:31:16.118;790698652022124800;-242293;-246801;-305006;-472796;
2025-01-20T22:31:16.136;790698652040313856;-242423;-246852;-305074;-472739;
2025-01-20T22:31:16.154;790698652058502912;-242472;-246939;-305095;-472704;
2025-01-20T22:31:16.173;790698652076691840;-242552;-246948;-305042;-472703;
2025-01-20T22:31:16.191;790698652094880854;-242533;-246922;-305009;-472710;
2025-01-20T22:31:16.209;790698652113068928;-242420;-246833;-304914;-472710;
2025-01-20T22:31:16.227;790698652131256960;-242284;-246664;-304779;-472712;
2025-01-20T22:31:16.245;790698652149444992;-242169;-246509;-304593;-472658;
2025-01-20T22:31:16.264;790698652167632896;-242011;-246289;-304406;-472671;
2025-01-20T22:31:16.282;790698652185820928;-241908;-246183;-304312;-472743;
2025-01-20T22:31:16.300;790698652204008960;-241907;-246104;-304188;-472761;
2025-01-20T22:31:16.318;790698652222196992;-241787;-245997;-304120;-472758;
2025-01-20T22:31:16.336;790698652240384896;-241681;-245894;-304050;-472715;
2025-01-20T22:31:16.355;790698652258572928;-241608;-245777;-303886;-472728;
2025-01-20T22:31:16.373;790698652276760960;-241465;-245660;-303690;-472722;
2025-01-20T22:31:16.391;790698652294948992;-241431;-245583;-303617;-472745;
2025-01-20T22:31:16.409;790698652313136896;-241329;-245380;-303511;-472761;
2025-01-20T22:31:16.427;790698652331324928;-241164;-245250;-303297;-472760;
2025-01-20T22:31:16.445;790698652349512960;-241015;-245081;-303150;-472715;
2025-01-20T22:31:16.464;790698652367700992;-240883;-244822;-303028;-472693;
2025-01-20T22:31:16.482;790698652385888896;-240686;-244658;-302879;-472706;
2025-01-20T22:31:16.500;790698652404076928;-240562;-244527;-302843;-472738;
2025-01-20T22:31:16.518;790698652422264960;-240610;-244571;-302927;-472753;
2025-01-20T22:31:16.536;790698652440452992;-240734;-244675;-303058;-472723;
2025-01-20T22:31:16.555;790698652458640896;-241066;-245018;-303367;-472685;
2025-01-20T22:31:16.573;790698652476828928;-241315;-245301;-303643;-472674;
2025-01-20T22:31:16.591;790698652495016960;-241713;-245625;-303973;-472747;
2025-01-20T22:31:16.609;790698652513204992;-241957;-245856;-304133;-472796;
2025-01-20T22:31:16.627;790698652531392896;-242074;-245900;-304133;-472749;
2025-01-20T22:31:16.646;790698652549580928;-242079;-245857;-304109;-472706;
2025-01-20T22:31:16.664;790698652567768960;-242128;-245866;-304077;-472758;
2025-01-20T22:31:16.682;790698652585956992;-242123;-245901;-304065;-472779;
2025-01-20T22:31:16.700;790698652604145024;-242019;-245723;-303917;-472774;
2025-01-20T22:31:16.718;790698652622332928;-241896;-245524;-303819;-472745;
2025-01-20T22:31:16.736;790698652640520960;-241689;-245315;-303622;-472726;
2025-01-20T22:31:16.755;790698652658708992;-241599;-245201;-303393;-472705;
2025-01-20T22:31:16.773;790698652676897024;-241438;-245060;-303268;-472708;
2025-01-20T22:31:16.791;790698652695084928;-241373;-244921;-303159;-472702;
2025-01-20T22:31:16.809;790698652713272960;-241290;-244839;-303033;-472680;
2025-01-20T22:31:16.827;790698652731460992;-241206;-244723;-302877;-472695;
2025-01-20T22:31:16.846;790698652749649024;-241147;-244585;-302801;-472683;
2025-01-20T22:31:16.864;790698652767836928;-241028;-244458;-302662;-472744;
2025-01-20T22:31:16.882;790698652786024960;-240893;-244275;-302575;-472716;
2025-01-20T22:31:16.900;790698652804212992;-240818;-244227;-302539;-472722;
2025-01-20T22:31:16.918;790698652822401024;-240708;-244054;-302387;-472739;
2025-01-20T22:31:16.937;790698652840588928;-240513;-243788;-302168;-472671;
2025-01-20T22:31:16.955;790698652858776912;-240367;-243648;-302044;-472698;
2025-01-20T22:31:16.973;790698652876964992;-240248;-243497;-301870;-472704;
2025-01-20T22:31:16.991;790698652895153024;-240197;-243409;-301836;-472729;
2025-01-20T22:31:17.009;790698652913341056;-240252;-243495;-301961;-472788;
2025-01-20T22:31:17.027;790698652931528960;-240444;-243686;-302204;-472686;
2025-01-20T22:31:17.046;790698652949716992;-240804;-243945;-302447;-472679;
2025-01-20T22:31:17.064;790698652967905024;-241150;-244294;-302714;-472685;
2025-01-20T22:31:17.082;790698652986093056;-241530;-244612;-303025;-472679;
2025-01-20T22:31:17.100;790698653004280960;-241773;-244795;-303178;-472670;
2025-01-20T22:31:17.118;790698653022468992;-241994;-244840;-303282;-472686;
2025-01-20T22:31:17.137;790698653040657024;-242029;-244878;-303333;-472705;
2025-01-20T22:31:17.155;790698653058845056;-242064;-244833;-303268;-472698;
2025-01-20T22:31:17.173;790698653077032960;-242046;-244792;-303201;-472714;
2025-01-20T22:31:17.191;790698653095220992;-242006;-244719;-303080;-472726;
2025-01-20T22:31:17.209;790698653113409024;-241888;-244547;-302947;-472727;
2025-01-20T22:31:17.228;790698653131597056;-241795;-244442;-302797;-472770;
2025-01-20T22:31:17.246;790698653149784960;-241671;-244271;-302608;-472778;
2025-01-20T22:31:17.264;790698653167972992;-241603;-244146;-302535;-472782;
2025-01-20T22:31:17.282;790698653186161024;-241418;-244066;-302379;-472716;
2025-01-20T22:31:17.300;790698653204349056;-241375;-243976;-302334;-472679;
2025-01-20T22:31:17.318;790698653222536960;-241216;-243878;-302220;-472720;
2025-01-20T22:31:17.337;790698653240724992;-241128;-243726;-302131;-472707;
2025-01-20T22:31:17.355;790698653258913024;-241064;-243577;-302039;-472732;
2025-01-20T22:31:17.373;790698653277101056;-240946;-243408;-301938;-472730;
2025-01-20T22:31:17.391;790698653295288960;-240844;-243334;-301799;-472717;
2025-01-20T22:31:17.409;790698653313476992;-240747;-243220;-301723;-472748;
2025-01-20T22:31:17.428;790698653331665024;-240647;-243036;-301605;-472729;
2025-01-20T22:31:17.446;790698653349853056;-240477;-242867;-301387;-472705;
2025-01-20T22:31:17.464;790698653368041088;-240416;-242755;-301328;-472755;
2025-01-20T22:31:17.482;790698653386228992;-240372;-242731;-301307;-472702;
2025-01-20T22:31:17.500;790698653404417024;-240615;-242857;-301528;-472728;
2025-01-20T22:31:17.519;790698653422605056;-240904;-243165;-301808;-472744;
2025-01-20T22:31:17.537;790698653440793088;-241276;-243438;-302135;-472723;
2025-01-20T22:31:17.555;790698653458980992;-241576;-243717;-302442;-472717;
2025-01-20T22:31:17.573;790698653477169024;-241936;-244028;-302635;-472728;
2025-01-20T22:31:17.591;790698653495357056;-242089;-244097;-302806;-472734;
2025-01-20T22:31:17.609;790698653513545088;-242250;-244133;-302856;-472748;
2025-01-20T22:31:17.628;790698653531732992;-242334;-244136;-302828;-472738;
2025-01-20T22:31:17.646;790698653549921024;-242378;-244095;-302824;-472737;
2025-01-20T22:31:17.664;790698653568109056;-242352;-244036;-302838;-472743;
2025-01-20T22:31:17.682;790698653586297088;-242258;-243901;-302734;-472788;
2025-01-20T22:31:17.700;790698653604484992;-242239;-243838;-302641;-472772;
2025-01-20T22:31:17.719;790698653622672970;-242165;-243691;-302547;-472736;
2025-01-20T22:31:17.737;790698653640861696;-242066;-243527;-302450;-472747;
2025-01-20T22:31:17.755;790698653659050368;-241947;-243418;-302352;-472772;
2025-01-20T22:31:17.773;790698653677239168;-241780;-243280;-302209;-472719;
2025-01-20T22:31:17.791;790698653695427840;-241719;-243192;-302134;-472717;
2025-01-20T22:31:17.810;790698653713616640;-241705;-243172;-302067;-472773;
2025-01-20T22:31:17.828;790698653731805312;-241552;-242942;-301971;-472747;
2025-01-20T22:31:17.846;790698653749994112;-241465;-242809;-301849;-472723;
2025-01-20T22:31:17.864;790698653768182784;-241396;-242688;-301800;-472721;
2025-01-20T22:31:17.882;790698653786371584;-241328;-242584;-301692;-472731;
2025-01-20T22:31:17.901;790698653804560256;-241170;-242465;-301609;-472720;
2025-01-20T22:31:17.919;790698653822748928;-241067;-242324;-301490;-472759;
2025-01-20T22:31:17.937;790698653840937728;-240858;-242099;-301335;-472747;
2025-01-20T22:31:17.955;790698653859126400;-240798;-242054;-301273;-472733;
2025-01-20T22:31:17.973;790698653877315200;-240923;-242185;-301456;-472708;
2025-01-20T22:31:17.991;790698653895503872;-241169;-242415;-301750;-472737;
2025-01-20T22:31:18.010;790698653913692672;-241599;-242729;-302118;-472789;
2025-01-20T22:31:18.028;790698653931881344;-241951;-242996;-302440;-472785;
2025-01-20T22:31:18.046;790698653950070016;-242317;-243271;-302740;-472733;
2025-01-20T22:31:18.064;790698653968258816;-242535;-243462;-302928;-472754;
2025-01-20T22:31:18.082;790698653986447488;-242707;-243584;-303006;-472717;
2025-01-20T22:31:18.101;790698654004636288;-242816;-243680;-303157;-472742;
2025-01-20T22:31:18.119;790698654022824960;-242830;-243672;-303155;-472740;
2025-01-20T22:31:18.137;790698654041013760;-242844;-243635;-303062;-472737;
2025-01-20T22:31:18.155;790698654059202432;-242799;-243534;-302916;-472776;
2025-01-20T22:31:18.173;790698654077391104;-242697;-243425;-302849;-472758;
2025-01-20T22:31:18.192;790698654095579904;-242601;-243254;-302653;-472705;
2025-01-20T22:31:18.210;790698654113768576;-242418;-243130;-302524;-472731;
2025-01-20T22:31:18.228;790698654131957376;-242324;-243022;-302439;-472723;
2025-01-20T22:31:18.246;790698654150146048;-242229;-242909;-302393;-472733;
2025-01-20T22:31:18.264;790698654168334848;-242155;-242744;-302225;-472800;
2025-01-20T22:31:18.282;790698654186523520;-241995;-242659;-302179;-472741;
2025-01-20T22:31:18.301;790698654204712320;-241910;-242481;-302062;-472725;
2025-01-20T22:31:18.319;790698654222900992;-241809;-242371;-302048;-472799;
2025-01-20T22:31:18.337;790698654241089664;-241677;-242208;-301897;-472742;
2025-01-20T22:31:18.355;790698654259278464;-241505;-241988;-301751;-472720;
2025-01-20T22:31:18.373;790698654277467136;-241307;-241856;-301533;-472745;
2025-01-20T22:31:18.392;790698654295655936;-241132;-241699;-301368;-472711;
2025-01-20T22:31:18.410;790698654313844608;-241023;-241604;-301285;-472756;
2025-01-20T22:31:18.428;790698654332033408;-240909;-241516;-301144;-472747;
2025-01-20T22:31:18.446;790698654350222080;-240789;-241373;-301093;-472696;
2025-01-20T22:31:18.464;790698654368410880;-240988;-241554;-301345;-472744;
2025-01-20T22:31:18.483;790698654386599546;-241255;-241856;-301658;-472692;
2025-01-20T22:31:18.501;790698654404787328;-241685;-242242;-302044;-472699;
2025-01-20T22:31:18.519;790698654422975104;-242055;-242569;-302376;-472787;
2025-01-20T22:31:18.537;790698654441162880;-242312;-242796;-302599;-472721;
2025-01-20T22:31:18.555;790698654459350656;-242529;-242969;-302772;-472731;
2025-01-20T22:31:18.573;790698654477538432;-242616;-243045;-302875;-472793;
2025-01-20T22:31:18.592;790698654495726208;-242671;-243013;-302847;-472725;
2025-01-20T22:31:18.610;790698654513913984;-242665;-242990;-302787;-472755;
2025-01-20T22:31:18.628;790698654532101760;-242548;-242950;-302686;-472791;
2025-01-20T22:31:18.646;790698654550289536;-242428;-242805;-302512;-472733;
2025-01-20T22:31:18.664;790698654568477312;-242295;-242706;-302388;-472705;
2025-01-20T22:31:18.683;790698654586665216;-242092;-242496;-302236;-472657;
2025-01-20T22:31:18.701;790698654604852992;-242061;-242448;-302182;-472777;
2025-01-20T22:31:18.719;790698654623040768;-241940;-242222;-302014;-472733;
2025-01-20T22:31:18.737;790698654641228544;-241849;-242134;-301961;-472738;
2025-01-20T22:31:18.755;790698654659416320;-241749;-242058;-301892;-472745;
2025-01-20T22:31:18.774;790698654677604096;-241661;-242012;-301912;-472771;
2025-01-20T22:31:18.792;790698654695791872;-241562;-241975;-301807;-472742;
2025-01-20T22:31:18.810;790698654713979648;-241420;-241870;-301674;-472744;
2025-01-20T22:31:18.828;790698654732167424;-241325;-241786;-301585;-472773;
2025-01-20T22:31:18.846;790698654750355200;-241200;-241678;-301487;-472766;
2025-01-20T22:31:18.864;790698654768542976;-241088;-241439;-301301;-472747;
2025-01-20T22:31:18.883;790698654786730752;-240874;-241239;-301128;-472747;
2025-01-20T22:31:18.901;790698654804918528;-240764;-241090;-301033;-472724;
2025-01-20T22:31:18.919;790698654823106304;-240735;-241056;-301022;-472758;
2025-01-20T22:31:18.937;790698654841294080;-240772;-241131;-301186;-472743;
2025-01-20T22:31:18.955;790698654859481856;-241057;-241391;-301488;-472759;
2025-01-20T22:31:18.974;790698654877669632;-241423;-241715;-301886;-472734;
2025-01-20T22:31:18.992;790698654895857408;-241717;-242023;-302232;-472678;
2025-01-20T22:31:19.010;790698654914045312;-242006;-242365;-302467;-472754;
2025-01-20T22:31:19.028;790698654932233088;-242232;-242546;-302636;-472738;
2025-01-20T22:31:19.046;790698654950420864;-242386;-242679;-302737;-472761;
2025-01-20T22:31:19.065;790698654968608640;-242399;-242722;-302796;-472717;
2025-01-20T22:31:19.083;790698654986796416;-242461;-242781;-302768;-472730;
2025-01-20T22:31:19.101;790698655004984192;-242377;-242719;-302700;-472757;
2025-01-20T22:31:19.119;790698655023171968;-242270;-242538;-302582;-472739;
2025-01-20T22:31:19.137;790698655041359744;-242127;-242376;-302377;-472704;
2025-01-20T22:31:19.156;790698655059547520;-242028;-242239;-302287;-472738;
2025-01-20T22:31:19.174;790698655077735296;-241916;-242086;-302136;-472757;
2025-01-20T22:31:19.192;790698655095923072;-241789;-241954;-302092;-472779;
2025-01-20T22:31:19.210;790698655114110848;-241705;-241915;-302011;-472790;
2025-01-20T22:31:19.228;790698655132298624;-241551;-241791;-301903;-472714;
2025-01-20T22:31:19.246;790698655150486436;-241534;-241750;-301909;-472738;
2025-01-20T22:31:19.265;790698655168675328;-241430;-241679;-301771;-472723;
2025-01-20T22:31:19.283;790698655186864256;-241370;-241567;-301648;-472689;
2025-01-20T22:31:19.301;790698655205053184;-241213;-241438;-301494;-472705;
2025-01-20T22:31:19.319;790698655223242112;-241066;-241311;-301453;-472748;
2025-01-20T22:31:19.337;790698655241431168;-240900;-241190;-301272;-472729;
2025-01-20T22:31:19.356;790698655259620096;-240786;-241025;-301099;-472707;
2025-01-20T22:31:19.374;790698655277809024;-240609;-240816;-300972;-472764;
2025-01-20T22:31:19.392;790698655295997952;-240543;-240785;-300971;-472744;
2025-01-20T22:31:19.410;790698655314186880;-240637;-240891;-301130;-472794;
2025-01-20T22:31:19.428;790698655332375808;-240846;-241137;-301437;-472772;
2025-01-20T22:31:19.447;790698655350564736;-241172;-241466;-301809;-472761;
2025-01-20T22:31:19.465;790698655368753792;-241570;-241808;-302102;-472765;
2025-01-20T22:31:19.483;790698655386942720;-241824;-242058;-302374;-472734;
2025-01-20T22:31:19.501;790698655405131648;-242099;-242298;-302610;-472753;
2025-01-20T22:31:19.519;790698655423320576;-242207;-242450;-302659;-472747;
2025-01-20T22:31:19.537;790698655441509504;-242297;-242534;-302732;-472798;
2025-01-20T22:31:19.556;790698655459698432;-242235;-242520;-302619;-472731;
2025-01-20T22:31:19.574;790698655477887360;-242183;-242433;-302597;-472742;
2025-01-20T22:31:19.592;790698655496076416;-242038;-242384;-302478;-472711;
2025-01-20T22:31:19.610;790698655514265344;-241953;-242157;-302403;-472761;
2025-01-20T22:31:19.628;790698655532454272;-241750;-242048;-302229;-472717;
2025-01-20T22:31:19.647;790698655550643200;-241660;-241960;-302091;-472736;
2025-01-20T22:31:19.665;790698655568832128;-241509;-241739;-301935;-472734;
2025-01-20T22:31:19.683;790698655587021056;-241332;-241547;-301785;-472679;
2025-01-20T22:31:19.701;790698655605209984;-241322;-241505;-301744;-472747;
2025-01-20T22:31:19.719;790698655623399040;-241202;-241446;-301583;-472765;
2025-01-20T22:31:19.738;790698655641587968;-241128;-241363;-301523;-472737;
2025-01-20T22:31:19.756;790698655659776896;-240917;-241296;-301357;-472730;
2025-01-20T22:31:19.774;790698655677965824;-240776;-241133;-301296;-472713;
2025-01-20T22:31:19.792;790698655696154752;-240730;-241040;-301246;-472734;
2025-01-20T22:31:19.810;790698655714343680;-240616;-240851;-301113;-472761;
2025-01-20T22:31:19.828;790698655732532608;-240369;-240711;-300926;-472723;
2025-01-20T22:31:19.847;790698655750721664;-240191;-240483;-300731;-472681;
2025-01-20T22:31:19.865;790698655768910592;-240090;-240381;-300631;-472704;
2025-01-20T22:31:19.883;790698655787099520;-240090;-240452;-300769;-472763;
2025-01-20T22:31:19.901;790698655805288448;-240244;-240628;-300959;-472705;
2025-01-20T22:31:19.919;790698655823477376;-240496;-240915;-301282;-472709;
2025-01-20T22:31:19.938;790698655841666304;-240858;-241292;-301619;-472729;
2025-01-20T22:31:19.956;790698655859855232;-241083;-241580;-301885;-472674;
2025-01-20T22:31:19.974;790698655878044288;-241264;-241754;-302081;-472695;
2025-01-20T22:31:19.992;790698655896233216;-241415;-241960;-302248;-472727;
2025-01-20T22:31:20.010;790698655914422180;-241499;-242068;-302342;-472770;
2025-01-20T22:31:20.029;790698655932610816;-241493;-241942;-302256;-472743;
2025-01-20T22:31:20.047;790698655950799488;-241400;-241890;-302205;-472722;
2025-01-20T22:31:20.065;790698655968988288;-241325;-241824;-302091;-472771;
2025-01-20T22:31:20.083;790698655987176960;-241145;-241603;-301941;-472757;
2025-01-20T22:31:20.101;790698656005365760;-241005;-241498;-301746;-472712;
2025-01-20T22:31:20.120;790698656023554432;-240909;-241406;-301663;-472765;
2025-01-20T22:31:20.138;790698656041743232;-240749;-241330;-301524;-472766;
2025-01-20T22:31:20.156;790698656059931904;-240618;-241141;-301420;-472768;
2025-01-20T22:31:20.174;790698656078120704;-240503;-241021;-301302;-472719;
2025-01-20T22:31:20.192;790698656096309376;-240283;-240891;-301158;-472702;
2025-01-20T22:31:20.210;790698656114498048;-240233;-240926;-301108;-472776;
2025-01-20T22:31:20.229;790698656132686848;-240154;-240789;-301013;-472746;
2025-01-20T22:31:20.247;790698656150875520;-239980;-240653;-300903;-472744;
2025-01-20T22:31:20.265;790698656169064320;-239886;-240506;-300737;-472766;
2025-01-20T22:31:20.283;790698656187252992;-239676;-240347;-300642;-472777;
2025-01-20T22:31:20.301;790698656205441792;-239582;-240233;-300560;-472757;
2025-01-20T22:31:20.320;790698656223630464;-239424;-240074;-300397;-472776;
2025-01-20T22:31:20.338;790698656241819136;-239322;-240017;-300391;-472715;
2025-01-20T22:31:20.356;790698656260007936;-239349;-240125;-300517;-472720;
2025-01-20T22:31:20.374;790698656278196608;-239581;-240309;-300760;-472734;
2025-01-20T22:31:20.392;790698656296385408;-239876;-240601;-301089;-472728;
2025-01-20T22:31:20.411;790698656314574080;-240174;-240976;-301413;-472726;
2025-01-20T22:31:20.429;790698656332762880;-240467;-241362;-301716;-472788;
2025-01-20T22:31:20.447;790698656350951552;-240574;-241526;-301899;-472754;
2025-01-20T22:31:20.465;790698656369140224;-240703;-241666;-301955;-472731;
2025-01-20T22:31:20.483;790698656387329024;-240725;-241725;-301987;-472742;
2025-01-20T22:31:20.501;790698656405517696;-240808;-241774;-302007;-472750;
2025-01-20T22:31:20.520;790698656423706496;-240746;-241691;-301950;-472749;
2025-01-20T22:31:20.538;790698656441895168;-240631;-241653;-301912;-472714;
2025-01-20T22:31:20.556;790698656460083968;-240544;-241533;-301838;-472705;
2025-01-20T22:31:20.574;790698656478272640;-240453;-241395;-301651;-472821;
2025-01-20T22:31:20.592;790698656496461440;-240341;-241228;-301591;-472775;
2025-01-20T22:31:20.611;790698656514650112;-240194;-241155;-301468;-472801;
2025-01-20T22:31:20.629;790698656532838784;-240065;-241079;-301326;-472772;
2025-01-20T22:31:20.647;790698656551027584;-239980;-241016;-301242;-472728;
2025-01-20T22:31:20.665;790698656569216256;-239846;-240915;-301183;-472732;
2025-01-20T22:31:20.683;790698656587405056;-239702;-240768;-301137;-472758;
2025-01-20T22:31:20.702;790698656605593728;-239647;-240643;-301005;-472764;
2025-01-20T22:31:20.720;790698656623782528;-239470;-240545;-300927;-472741;
2025-01-20T22:31:20.738;790698656641971200;-239373;-240444;-300781;-472758;
2025-01-20T22:31:20.756;790698656660160000;-239226;-240306;-300689;-472744;
2025-01-20T22:31:20.774;790698656678348756;-239050;-240172;-300525;-472706;
2025-01-20T22:31:20.792;790698656696538240;-239073;-240120;-300514;-472759;
2025-01-20T22:31:20.811;790698656714727680;-239126;-240202;-300633;-472725;
2025-01-20T22:31:20.829;790698656732917120;-239357;-240554;-301049;-472740;
2025-01-20T22:31:20.847;790698656751106560;-239694;-240892;-301372;-472775;
2025-01-20T22:31:20.865;790698656769296000;-239960;-241166;-301664;-472758;
2025-01-20T22:31:20.883;790698656787485440;-240177;-241488;-301934;-472711;
2025-01-20T22:31:20.902;790698656805674880;-240427;-241756;-302194;-472764;
2025-01-20T22:31:20.920;790698656823864320;-240598;-241951;-302386;-472760;
2025-01-20T22:31:20.938;790698656842053760;-240707;-242096;-302437;-472773;
2025-01-20T22:31:20.956;790698656860243200;-240740;-242120;-302426;-472748;
2025-01-20T22:31:20.974;790698656878432640;-240737;-242090;-302369;-472801;
2025-01-20T22:31:20.993;790698656896622080;-240540;-241865;-302137;-472767;
2025-01-20T22:31:21.011;790698656914811520;-240364;-241749;-302009;-472740;
2025-01-20T22:31:21.029;790698656933000832;-240245;-241611;-301891;-472736;
2025-01-20T22:31:21.047;790698656951190272;-240112;-241514;-301737;-472771;
2025-01-20T22:31:21.065;790698656969379712;-239942;-241396;-301586;-472734;
2025-01-20T22:31:21.084;790698656987569152;-239847;-241278;-301436;-472695;
2025-01-20T22:31:21.102;790698657005758592;-239771;-241232;-301374;-472771;
2025-01-20T22:31:21.120;790698657023948032;-239666;-241175;-301329;-472781;
2025-01-20T22:31:21.138;790698657042137472;-239636;-241076;-301275;-472793;
2025-01-20T22:31:21.156;790698657060326912;-239465;-241004;-301094;-472770;
2025-01-20T22:31:21.174;790698657078516352;-239318;-240837;-301108;-472767;
2025-01-20T22:31:21.193;790698657096705792;-239283;-240771;-300966;-472722;
2025-01-20T22:31:21.211;790698657114895232;-239079;-240598;-300820;-472720;
2025-01-20T22:31:21.229;790698657133084672;-239021;-240506;-300709;-472703;
2025-01-20T22:31:21.247;790698657151274112;-238988;-240461;-300772;-472693;
2025-01-20T22:31:21.265;790698657169463552;-239116;-240727;-300974;-472699;
2025-01-20T22:31:21.284;790698657187652992;-239356;-241058;-301301;-472740;
2025-01-20T22:31:21.302;790698657205842432;-239679;-241476;-301660;-472711;
2025-01-20T22:31:21.320;790698657224031872;-240040;-241799;-302056;-472765;
2025-01-20T22:31:21.338;790698657242221312;-240341;-242159;-302301;-472747;
2025-01-20T22:31:21.356;790698657260410752;-240585;-242394;-302479;-472753;
2025-01-20T22:31:21.375;790698657278600192;-240659;-242537;-302621;-472743;
2025-01-20T22:31:21.393;790698657296789632;-240655;-242521;-302596;-472660;
2025-01-20T22:31:21.411;790698657314979072;-240657;-242650;-302587;-472737;
2025-01-20T22:31:21.429;790698657333168512;-240661;-242556;-302463;-472691;
2025-01-20T22:31:21.447;790698657351357952;-240598;-242550;-302388;-472724;
2025-01-20T22:31:21.466;790698657369547264;-240511;-242463;-302359;-472766;
2025-01-20T22:31:21.484;790698657387736704;-240387;-242369;-302176;-472778;
2025-01-20T22:31:21.502;790698657405926144;-240249;-242253;-302010;-472731;
2025-01-20T22:31:21.520;790698657424115579;-240082;-242139;-301855;-472753;
2025-01-20T22:31:21.538;790698657442305024;-240038;-241996;-301777;-472721;
2025-01-20T22:31:21.556;790698657460494464;-239925;-241882;-301619;-472724;
2025-01-20T22:31:21.575;790698657478684032;-239824;-241825;-301599;-472734;
2025-01-20T22:31:21.593;790698657496873472;-239717;-241735;-301476;-472726;
2025-01-20T22:31:21.611;790698657515063040;-239588;-241679;-301351;-472717;
2025-01-20T22:31:21.629;790698657533252480;-239490;-241635;-301319;-472780;
2025-01-20T22:31:21.647;790698657551441920;-239379;-241483;-301212;-472790;
2025-01-20T22:31:21.666;790698657569631488;-239232;-241365;-301079;-472777;
2025-01-20T22:31:21.684;790698657587820928;-239197;-241298;-301093;-472833;
2025-01-20T22:31:21.702;790698657606010496;-239254;-241408;-301174;-472793;
2025-01-20T22:31:21.720;790698657624199936;-239441;-241683;-301413;-472719;
2025-01-20T22:31:21.738;790698657642389376;-239783;-242093;-301783;-472816;
2025-01-20T22:31:21.757;790698657660578944;-240074;-242467;-302152;-472727;
2025-01-20T22:31:21.775;790698657678768384;-240457;-242880;-302518;-472759;
2025-01-20T22:31:21.793;790698657696957952;-240699;-243141;-302770;-472696;
2025-01-20T22:31:21.811;790698657715147392;-240901;-243407;-302926;-472781;
2025-01-20T22:31:21.829;790698657733336832;-240981;-243563;-303064;-472776;
2025-01-20T22:31:21.847;790698657751526400;-241067;-243610;-303119;-472750;
2025-01-20T22:31:21.866;790698657769715840;-241051;-243614;-303072;-472747;
2025-01-20T22:31:21.884;790698657787905408;-240968;-243492;-302957;-472731;
2025-01-20T22:31:21.902;790698657806094848;-240871;-243391;-302795;-472730;
2025-01-20T22:31:21.920;790698657824284288;-240816;-243333;-302708;-472758;
2025-01-20T22:31:21.938;790698657842473856;-240780;-243316;-302624;-472772;
2025-01-20T22:31:21.957;790698657860663296;-240576;-243126;-302380;-472785;
2025-01-20T22:31:21.975;790698657878852864;-240473;-243041;-302302;-472759;
2025-01-20T22:31:21.993;790698657897042304;-240360;-242836;-302199;-472757;
2025-01-20T22:31:22.011;790698657915231744;-240211;-242760;-302070;-472710;
2025-01-20T22:31:22.029;790698657933421312;-240152;-242697;-301987;-472773;
2025-01-20T22:31:22.048;790698657951610752;-240039;-242632;-301869;-472748;
2025-01-20T22:31:22.066;790698657969800320;-239936;-242550;-301812;-472757;
2025-01-20T22:31:22.084;790698657987989760;-239779;-242380;-301746;-472709;
2025-01-20T22:31:22.102;790698658006179200;-239641;-242249;-301587;-472681;
2025-01-20T22:31:22.120;790698658024368768;-239626;-242241;-301577;-472749;
2025-01-20T22:31:22.139;790698658042558208;-239650;-242308;-301607;-472747;
2025-01-20T22:31:22.157;790698658060747776;-239743;-242442;-301802;-472726;
2025-01-20T22:31:22.175;790698658078937216;-240023;-242751;-302104;-472702;
2025-01-20T22:31:22.193;790698658097126656;-240415;-243156;-302525;-472724;
2025-01-20T22:31:22.211;790698658115316224;-240707;-243607;-302858;-472763;
2025-01-20T22:31:22.229;790698658133505664;-241059;-243998;-303221;-472823;
2025-01-20T22:31:22.248;790698658151695232;-241303;-244199;-303379;-472793;
2025-01-20T22:31:22.266;790698658169884672;-241478;-244383;-303471;-472793;
2025-01-20T22:31:22.284;790698658188074216;-241568;-244538;-303516;-472709;
2025-01-20T22:31:22.302;790698658206263040;-241569;-244548;-303529;-472708;
2025-01-20T22:31:22.320;790698658224451840;-241596;-244572;-303521;-472776;
2025-01-20T22:31:22.339;790698658242640768;-241492;-244483;-303447;-472765;
2025-01-20T22:31:22.357;790698658260829568;-241489;-244429;-303349;-472744;
2025-01-20T22:31:22.375;790698658279018368;-241339;-244274;-303231;-472704;
2025-01-20T22:31:22.393;790698658297207168;-241275;-244246;-303215;-472741;
2025-01-20T22:31:22.411;790698658315396096;-241235;-244108;-303073;-472734;
2025-01-20T22:31:22.430;790698658333584896;-241167;-244090;-303013;-472765;
2025-01-20T22:31:22.448;790698658351773696;-241124;-243994;-302931;-472703;
2025-01-20T22:31:22.466;790698658369962624;-241024;-243836;-302841;-472747;
2025-01-20T22:31:22.484;790698658388151424;-240953;-243767;-302765;-472748;
2025-01-20T22:31:22.502;790698658406340224;-240852;-243685;-302760;-472763;
2025-01-20T22:31:22.520;790698658424529024;-240725;-243649;-302630;-472768;
2025-01-20T22:31:22.539;790698658442717952;-240643;-243537;-302546;-472841;
2025-01-20T22:31:22.557;790698658460906752;-240470;-243434;-302427;-472771;
2025-01-20T22:31:22.575;790698658479095552;-240325;-243299;-302300;-472758;
2025-01-20T22:31:22.593;790698658497284480;-240359;-243269;-302372;-472763;
2025-01-20T22:31:22.611;790698658515473280;-240564;-243463;-302569;-472788;
2025-01-20T22:31:22.630;790698658533662080;-240845;-243752;-302880;-472781;
2025-01-20T22:31:22.648;790698658551850880;-241181;-244173;-303255;-472810;
2025-01-20T22:31:22.666;790698658570039808;-241543;-244673;-303644;-472774;
2025-01-20T22:31:22.684;790698658588228608;-241919;-244982;-303922;-472703;
2025-01-20T22:31:22.702;790698658606417408;-242271;-245301;-304220;-472777;
2025-01-20T22:31:22.721;790698658624606336;-242538;-245556;-304408;-472863;
2025-01-20T22:31:22.739;790698658642795136;-242553;-245620;-304432;-472722;
2025-01-20T22:31:22.757;790698658660983936;-242645;-245700;-304504;-472825;
2025-01-20T22:31:22.775;790698658679172864;-242637;-245665;-304387;-472760;
2025-01-20T22:31:22.793;790698658697361664;-242580;-245598;-304352;-472732;
2025-01-20T22:31:22.812;790698658715550464;-242493;-245524;-304187;-472784;
2025-01-20T22:31:22.830;790698658733739264;-242371;-245335;-304063;-472759;
2025-01-20T22:31:22.848;790698658751928192;-242249;-245220;-303909;-472764;
2025-01-20T22:31:22.866;790698658770116992;-242100;-245025;-303729;-472775;
2025-01-20T22:31:22.884;790698658788305792;-241964;-244886;-303609;-472760;
2025-01-20T22:31:22.902;790698658806494720;-241877;-244756;-303506;-472742;
2025-01-20T22:31:22.921;790698658824683520;-241790;-244612;-303455;-472784;
2025-01-20T22:31:22.939;790698658842872320;-241693;-244569;-303362;-472791;
2025-01-20T22:31:22.957;790698658861061120;-241598;-244417;-303273;-472805;
2025-01-20T22:31:22.975;790698658879250048;-241545;-244289;-303194;-472741;
2025-01-20T22:31:22.993;790698658897438848;-241391;-244180;-303072;-472773;
2025-01-20T22:31:23.012;790698658915627648;-241196;-244080;-303022;-472763;
2025-01-20T22:31:23.030;790698658933816576;-241082;-243936;-302911;-472762;
2025-01-20T22:31:23.048;790698658952005367;-240983;-243864;-302755;-472799;
2025-01-20T22:31:23.066;790698658970194944;-240871;-243813;-302719;-472755;
2025-01-20T22:31:23.084;790698658988384512;-241029;-243964;-302871;-472749;
2025-01-20T22:31:23.103;790698659006573952;-241234;-244133;-303140;-472714;
2025-01-20T22:31:23.121;790698659024763520;-241488;-244554;-303491;-472697;
2025-01-20T22:31:23.139;790698659042953088;-241873;-244938;-303921;-472794;
2025-01-20T22:31:23.157;790698659061142528;-242226;-245240;-304187;-472748;
2025-01-20T22:31:23.175;790698659079332096;-242488;-245526;-304349;-472774;
2025-01-20T22:31:23.193;790698659097521664;-242629;-245707;-304493;-472732;
2025-01-20T22:31:23.212;790698659115711104;-242815;-245856;-304599;-472740;
2025-01-20T22:31:23.230;790698659133900672;-242804;-245867;-304542;-472741;
2025-01-20T22:31:23.248;790698659152090240;-242746;-245811;-304479;-472744;
2025-01-20T22:31:23.266;790698659170279680;-242707;-245662;-304343;-472706;
2025-01-20T22:31:23.284;790698659188469248;-242656;-245573;-304273;-472755;
2025-01-20T22:31:23.303;790698659206658816;-242510;-245418;-304120;-472708;
2025-01-20T22:31:23.321;790698659224848384;-242417;-245341;-304088;-472736;
2025-01-20T22:31:23.339;790698659243037824;-242329;-245251;-303960;-472683;
2025-01-20T22:31:23.357;790698659261227392;-242291;-245177;-303895;-472775;
2025-01-20T22:31:23.375;790698659279416960;-242181;-245090;-303775;-472768;
2025-01-20T22:31:23.394;790698659297606400;-242048;-244920;-303681;-472771;
2025-01-20T22:31:23.412;790698659315795968;-241976;-244818;-303568;-472717;
2025-01-20T22:31:23.430;790698659333985536;-241935;-244794;-303512;-472757;
2025-01-20T22:31:23.448;790698659352174976;-241834;-244660;-303410;-472762;
2025-01-20T22:31:23.466;790698659370364544;-241808;-244540;-303350;-472808;
2025-01-20T22:31:23.485;790698659388554112;-241646;-244464;-303166;-472714;
2025-01-20T22:31:23.503;790698659406743552;-241499;-244162;-303039;-472722;
2025-01-20T22:31:23.521;790698659424933120;-241467;-244137;-302989;-472767;
2025-01-20T22:31:23.539;790698659443122688;-241395;-244118;-303003;-472726;
2025-01-20T22:31:23.557;790698659461312128;-241415;-244240;-303113;-472760;
2025-01-20T22:31:23.575;790698659479501696;-241673;-244384;-303380;-472721;
2025-01-20T22:31:23.594;790698659497691264;-241997;-244837;-303681;-472703;
2025-01-20T22:31:23.612;790698659515880704;-242380;-245171;-304107;-472749;
2025-01-20T22:31:23.630;790698659534070272;-242752;-245581;-304409;-472787;
2025-01-20T22:31:23.648;790698659552259840;-243090;-245869;-304676;-472790;
2025-01-20T22:31:23.666;790698659570449280;-243277;-245973;-304770;-472694;
2025-01-20T22:31:23.685;790698659588638848;-243391;-246125;-304894;-472770;
2025-01-20T22:31:23.703;790698659606828416;-243375;-246161;-304878;-472771;
2025-01-20T22:31:23.721;790698659625017984;-243360;-246171;-304777;-472719;
2025-01-20T22:31:23.739;790698659643207424;-243278;-246013;-304658;-472755;
2025-01-20T22:31:23.757;790698659661396992;-243133;-245883;-304501;-472771;
2025-01-20T22:31:23.776;790698659679586560;-243100;-245730;-304364;-472762;
2025-01-20T22:31:23.794;790698659697776000;-242985;-245630;-304292;-472705;
2025-01-20T22:31:23.812;790698659715965511;-242890;-245519;-304108;-472733;
2025-01-20T22:31:23.830;790698659734154624;-242703;-245349;-304018;-472671;
2025-01-20T22:31:23.848;790698659752343680;-242660;-245273;-303905;-472741;
2025-01-20T22:31:23.866;790698659770532608;-242592;-245228;-303875;-472768;
2025-01-20T22:31:23.885;790698659788721664;-242510;-245115;-303771;-472722;
2025-01-20T22:31:23.903;790698659806910720;-242400;-244963;-303696;-472785;
2025-01-20T22:31:23.921;790698659825099776;-242260;-244922;-303605;-472821;
2025-01-20T22:31:23.939;790698659843288704;-242185;-244803;-303471;-472848;
2025-01-20T22:31:23.957;790698659861477760;-242043;-244642;-303348;-472777;
2025-01-20T22:31:23.976;790698659879666816;-241939;-244549;-303281;-472750;
2025-01-20T22:31:23.994;790698659897855744;-241806;-244341;-303064;-472742;
2025-01-20T22:31:24.012;790698659916044800;-241716;-244286;-303128;-472737;
2025-01-20T22:31:24.030;790698659934233856;-241852;-244455;-303311;-472734;
2025-01-20T22:31:24.048;790698659952422912;-242144;-244696;-303597;-472747;
2025-01-20T22:31:24.067;790698659970611840;-242488;-245024;-303999;-472715;
2025-01-20T22:31:24.085;790698659988800896;-242859;-245416;-304371;-472768;
2025-01-20T22:31:24.103;790698660006989952;-243172;-245723;-304588;-472724;
2025-01-20T22:31:24.121;790698660025178880;-243530;-246087;-304876;-472756;
2025-01-20T22:31:24.139;790698660043367936;-243715;-246191;-304939;-472728;
2025-01-20T22:31:24.158;790698660061556992;-243726;-246269;-304968;-472727;
2025-01-20T22:31:24.176;790698660079745920;-243715;-246293;-304968;-472775;
2025-01-20T22:31:24.194;790698660097934976;-243710;-246190;-304923;-472804;
2025-01-20T22:31:24.212;790698660116124032;-243666;-246075;-304775;-472772;
2025-01-20T22:31:24.230;790698660134313088;-243563;-245951;-304614;-472758;
2025-01-20T22:31:24.248;790698660152502016;-243475;-245823;-304520;-472799;
2025-01-20T22:31:24.267;790698660170691072;-243348;-245696;-304342;-472756;
2025-01-20T22:31:24.285;790698660188880128;-243246;-245563;-304217;-472714;
2025-01-20T22:31:24.303;790698660207069056;-243095;-245336;-304129;-472755;
2025-01-20T22:31:24.321;790698660225258112;-242985;-245372;-304097;-472753;
2025-01-20T22:31:24.339;790698660243447168;-242939;-245312;-304017;-472823;
2025-01-20T22:31:24.358;790698660261636224;-242897;-245196;-303943;-472777;
2025-01-20T22:31:24.376;790698660279825152;-242693;-245043;-303812;-472739;
2025-01-20T22:31:24.394;790698660298014208;-242559;-244912;-303678;-472741;
2025-01-20T22:31:24.412;790698660316203264;-242439;-244801;-303588;-472765;
2025-01-20T22:31:24.430;790698660334392192;-242321;-244593;-303453;-472728;
2025-01-20T22:31:24.449;790698660352581248;-242331;-244578;-303393;-472764;
2025-01-20T22:31:24.467;790698660370770304;-242267;-244466;-303296;-472756;
2025-01-20T22:31:24.485;790698660388959360;-242302;-244619;-303554;-472788;
2025-01-20T22:31:24.503;790698660407148288;-242504;-244884;-303789;-472745;
2025-01-20T22:31:24.521;790698660425337344;-242905;-245303;-304161;-472790;
2025-01-20T22:31:24.539;790698660443526400;-243326;-245642;-304483;-472775;
2025-01-20T22:31:24.558;790698660461715328;-243601;-245925;-304761;-472762;
2025-01-20T22:31:24.576;790698660479904298;-243914;-246241;-304989;-472802;
2025-01-20T22:31:24.594;790698660498092544;-244052;-246416;-305125;-472748;
2025-01-20T22:31:24.612;790698660516280832;-244095;-246494;-305158;-472772;
2025-01-20T22:31:24.630;790698660534468992;-244143;-246437;-305118;-472801;
2025-01-20T22:31:24.649;790698660552657280;-244094;-246344;-305089;-472805;
2025-01-20T22:31:24.667;790698660570845568;-244007;-246234;-304906;-472833;
2025-01-20T22:31:24.685;790698660589033856;-243821;-246086;-304760;-472798;
2025-01-20T22:31:24.703;790698660607222016;-243719;-245939;-304590;-472759;
2025-01-20T22:31:24.721;790698660625410304;-243565;-245818;-304475;-472725;
2025-01-20T22:31:24.740;790698660643598592;-243489;-245695;-304363;-472780;
2025-01-20T22:31:24.758;790698660661786880;-243318;-245552;-304246;-472782;
2025-01-20T22:31:24.776;790698660679975040;-243146;-245434;-304048;-472716;
2025-01-20T22:31:24.794;790698660698163328;-243107;-245349;-303997;-472757;
2025-01-20T22:31:24.812;790698660716351616;-243005;-245162;-303899;-472761;
2025-01-20T22:31:24.830;790698660734539904;-242883;-245107;-303808;-472758;
2025-01-20T22:31:24.849;790698660752728064;-242809;-244983;-303692;-472781;
2025-01-20T22:31:24.867;790698660770916352;-242641;-244858;-303532;-472764;
2025-01-20T22:31:24.885;790698660789104640;-242440;-244701;-303352;-472670;
2025-01-20T22:31:24.903;790698660807292928;-242335;-244551;-303266;-472767;
2025-01-20T22:31:24.921;790698660825481088;-242260;-244496;-303275;-472724;
2025-01-20T22:31:24.940;790698660843669376;-242364;-244621;-303411;-472711;
2025-01-20T22:31:24.958;790698660861857664;-242675;-244931;-303717;-472754;
2025-01-20T22:31:24.976;790698660880045952;-243019;-245289;-304137;-472763;
2025-01-20T22:31:24.994;790698660898234112;-243311;-245638;-304451;-472737;
2025-01-20T22:31:25.012;790698660916422400;-243674;-245929;-304741;-472743;
2025-01-20T22:31:25.031;790698660934610688;-243913;-246132;-304979;-472742;
2025-01-20T22:31:25.049;790698660952798976;-244005;-246243;-304999;-472788;
2025-01-20T22:31:25.067;790698660970987136;-244134;-246240;-305073;-472768;
2025-01-20T22:31:25.085;790698660989175424;-244154;-246329;-305017;-472780;
2025-01-20T22:31:25.103;790698661007363712;-244073;-246157;-304884;-472737;
2025-01-20T22:31:25.122;790698661025552000;-243991;-246131;-304871;-472723;
2025-01-20T22:31:25.140;790698661043740160;-243888;-246000;-304796;-472757;
2025-01-20T22:31:25.158;790698661061928448;-243768;-245885;-304661;-472745;
2025-01-20T22:31:25.176;790698661080116736;-243648;-245731;-304578;-472751;
2025-01-20T22:31:25.194;790698661098305024;-243555;-245604;-304483;-472737;
2025-01-20T22:31:25.212;790698661116493184;-243526;-245535;-304372;-472760;
2025-01-20T22:31:25.231;790698661134681472;-243417;-245473;-304253;-472695;
2025-01-20T22:31:25.249;790698661152869760;-243404;-245376;-304227;-472729;
2025-01-20T22:31:25.267;790698661171058048;-243222;-245265;-304076;-472723;
2025-01-20T22:31:25.285;790698661189246208;-243149;-245165;-304036;-472775;
2025-01-20T22:31:25.303;790698661207434496;-242943;-245005;-303831;-472721;
2025-01-20T22:31:25.322;790698661225622784;-242822;-244901;-303745;-472733;
2025-01-20T22:31:25.340;790698661243811038;-242730;-244766;-303648;-472764;
2025-01-20T22:31:25.358;790698661261999104;-242608;-244643;-303564;-472746;
2025-01-20T22:31:25.376;790698661280187136;-242541;-244562;-303609;-472800;
2025-01-20T22:31:25.394;790698661298375168;-242696;-244700;-303778;-472742;
2025-01-20T22:31:25.413;790698661316563072;-242950;-244935;-304066;-472754;
2025-01-20T22:31:25.431;790698661334751104;-243287;-245286;-304427;-472785;
2025-01-20T22:31:25.449;790698661352939136;-243627;-245626;-304734;-472740;
2025-01-20T22:31:25.467;790698661371127168;-243962;-245899;-305053;-472734;
2025-01-20T22:31:25.485;790698661389315072;-244224;-246166;-305278;-472719;
2025-01-20T22:31:25.503;790698661407503104;-244359;-246318;-305354;-472731;
2025-01-20T22:31:25.522;790698661425691136;-244461;-246389;-305390;-472759;
2025-01-20T22:31:25.540;790698661443879168;-244413;-246348;-305370;-472728;
2025-01-20T22:31:25.558;790698661462067072;-244370;-246414;-305300;-472758;
2025-01-20T22:31:25.576;790698661480255104;-244304;-246359;-305228;-472755;
2025-01-20T22:31:25.594;790698661498443136;-244133;-246219;-305034;-472761;
2025-01-20T22:31:25.613;790698661516631168;-244032;-246066;-304969;-472708;
2025-01-20T22:31:25.631;790698661534819072;-243941;-245894;-304846;-472745;
2025-01-20T22:31:25.649;790698661553007104;-243814;-245713;-304598;-472753;
2025-01-20T22:31:25.667;790698661571195136;-243711;-245617;-304511;-472812;
2025-01-20T22:31:25.685;790698661589383168;-243578;-245505;-304424;-472759;
2025-01-20T22:31:25.704;790698661607571072;-243384;-245370;-304278;-472723;
2025-01-20T22:31:25.722;790698661625759104;-243348;-245273;-304162;-472741;
2025-01-20T22:31:25.740;790698661643947136;-243233;-245157;-304031;-472772;
2025-01-20T22:31:25.758;790698661662135168;-243100;-245048;-303975;-472780;
2025-01-20T22:31:25.776;790698661680323072;-242955;-244914;-303839;-472758;
2025-01-20T22:31:25.794;790698661698511104;-242810;-244717;-303662;-472741;
2025-01-20T22:31:25.813;790698661716699136;-242620;-244546;-303486;-472704;
2025-01-20T22:31:25.831;790698661734887168;-242601;-244487;-303514;-472739;
2025-01-20T22:31:25.849;790698661753075200;-242676;-244630;-303662;-472729;
2025-01-20T22:31:25.867;790698661771263104;-242904;-244821;-303927;-472720;
2025-01-20T22:31:25.885;790698661789451136;-243185;-245107;-304236;-472748;
2025-01-20T22:31:25.904;790698661807639168;-243465;-245328;-304568;-472727;
2025-01-20T22:31:25.922;790698661825827200;-243797;-245594;-304804;-472777;
2025-01-20T22:31:25.940;790698661844015104;-243885;-245792;-304924;-472722;
2025-01-20T22:31:25.958;790698661862203136;-244055;-245886;-305064;-472781;
2025-01-20T22:31:25.976;790698661880391168;-244009;-245781;-305023;-472816;
2025-01-20T22:31:25.995;790698661898579200;-243994;-245780;-305006;-472804;
2025-01-20T22:31:26.013;790698661916767104;-243881;-245626;-304848;-472764;
2025-01-20T22:31:26.031;790698661934955136;-243740;-245600;-304775;-472773;
2025-01-20T22:31:26.049;790698661953143168;-243685;-245466;-304643;-472782;
2025-01-20T22:31:26.067;790698661971331200;-243494;-245248;-304522;-472777;
2025-01-20T22:31:26.085;790698661989519104;-243300;-245127;-304378;-472773;
2025-01-20T22:31:26.104;790698662007707096;-243163;-244986;-304163;-472767;
2025-01-20T22:31:26.122;790698662025894656;-243030;-244823;-304005;-472731;
2025-01-20T22:31:26.140;790698662044082176;-242964;-244649;-303895;-472781;
2025-01-20T22:31:26.158;790698662062269696;-242857;-244594;-303806;-472807;
2025-01-20T22:31:26.176;790698662080457216;-242748;-244418;-303664;-472791;
2025-01-20T22:31:26.195;790698662098644736;-242640;-244269;-303627;-472799;
2025-01-20T22:31:26.213;790698662116832256;-242446;-244148;-303409;-472687;
2025-01-20T22:31:26.231;790698662135019776;-242274;-244008;-303300;-472755;
2025-01-20T22:31:26.249;790698662153207296;-242149;-243829;-303149;-472791;
2025-01-20T22:31:26.267;790698662171394944;-242035;-243677;-303042;-472810;
2025-01-20T22:31:26.286;790698662189582464;-241865;-243533;-302916;-472738;
2025-01-20T22:31:26.304;790698662207769984;-241919;-243524;-303038;-472782;
2025-01-20T22:31:26.322;790698662225957504;-241959;-243601;-303154;-472728;
2025-01-20T22:31:26.340;790698662244145024;-242270;-243857;-303455;-472755;
2025-01-20T22:31:26.358;790698662262332544;-242522;-244139;-303755;-472764;
2025-01-20T22:31:26.376;790698662280520064;-242712;-244403;-304010;-472771;
2025-01-20T22:31:26.395;790698662298707584;-242891;-244539;-304140;-472746;
2025-01-20T22:31:26.413;790698662316895104;-243012;-244654;-304207;-472785;
2025-01-20T22:31:26.431;790698662335082624;-243037;-244679;-304229;-472785;
2025-01-20T22:31:26.449;790698662353270144;-243030;-244664;-304156;-472747;
2025-01-20T22:31:26.467;790698662371457664;-243017;-244648;-304095;-472775;
2025-01-20T22:31:26.486;790698662389645184;-242901;-244545;-303968;-472792;
2025-01-20T22:31:26.504;790698662407832704;-242747;-244362;-303814;-472804;
2025-01-20T22:31:26.522;790698662426020352;-242575;-244214;-303588;-472739;
2025-01-20T22:31:26.540;790698662444207872;-242405;-244079;-303489;-472717;
2025-01-20T22:31:26.558;790698662462395392;-242337;-243906;-303297;-472757;
2025-01-20T22:31:26.577;790698662480582912;-242239;-243823;-303212;-472781;
2025-01-20T22:31:26.595;790698662498770432;-242015;-243673;-303140;-472831;
2025-01-20T22:31:26.613;790698662516957952;-241774;-243445;-302923;-472714;
2025-01-20T22:31:26.631;790698662535145472;-241666;-243310;-302821;-472787;
2025-01-20T22:31:26.649;790698662553332992;-241534;-243175;-302702;-472807;
2025-01-20T22:31:26.667;790698662571520512;-241318;-242894;-302519;-472757;
2025-01-20T22:31:26.686;790698662589708032;-241099;-242743;-302335;-472729;
2025-01-20T22:31:26.704;790698662607895552;-240898;-242504;-302130;-472713;
2025-01-20T22:31:26.722;790698662626083072;-240726;-242333;-301990;-472750;
2025-01-20T22:31:26.740;790698662644270592;-240541;-242123;-301908;-472775;
2025-01-20T22:31:26.758;790698662662458112;-240362;-242017;-301864;-472778;
2025-01-20T22:31:26.777;790698662680645760;-240415;-242114;-301953;-472767;
2025-01-20T22:31:26.795;790698662698833280;-240563;-242320;-302180;-472743;
2025-01-20T22:31:26.813;790698662717020800;-240750;-242540;-302425;-472767;
2025-01-20T22:31:26.831;790698662735208320;-240926;-242752;-302666;-472715;
2025-01-20T22:31:26.849;790698662753395840;-241063;-242895;-302752;-472811;
2025-01-20T22:31:26.868;790698662771583316;-241148;-242956;-302775;-472746;
2025-01-20T22:31:26.886;790698662789771776;-241227;-242991;-302863;-472763;
2025-01-20T22:31:26.904;790698662807960192;-241071;-242942;-302703;-472774;
2025-01-20T22:31:26.922;790698662826148736;-240962;-242911;-302630;-472749;
2025-01-20T22:31:26.940;790698662844337152;-240798;-242781;-302488;-472755;
2025-01-20T22:31:26.958;790698662862525696;-240684;-242602;-302322;-472794;
2025-01-20T22:31:26.977;790698662880714112;-240499;-242403;-302128;-472782;
2025-01-20T22:31:26.995;790698662898902656;-240334;-242246;-301928;-472750;
2025-01-20T22:31:27.013;790698662917091072;-240128;-242094;-301758;-472737;
2025-01-20T22:31:27.031;790698662935279616;-239929;-241928;-301571;-472830;
2025-01-20T22:31:27.049;790698662953468032;-239727;-241697;-301397;-472780;
2025-01-20T22:31:27.068;790698662971656576;-239619;-241628;-301320;-472757;
2025-01-20T22:31:27.086;790698662989844992;-239370;-241432;-301079;-472708;
2025-01-20T22:31:27.104;790698663008033408;-239233;-241249;-300883;-472724;
2025-01-20T22:31:27.122;790698663026221952;-239161;-241209;-300881;-472743;
2025-01-20T22:31:27.140;790698663044410368;-239010;-240999;-300712;-472764;
2025-01-20T22:31:27.159;790698663062598912;-238778;-240828;-300553;-472779;
2025-01-20T22:31:27.177;790698663080787328;-238563;-240612;-300381;-472764;
2025-01-20T22:31:27.195;790698663098975872;-238346;-240372;-300167;-472688;
2025-01-20T22:31:27.213;790698663117164288;-238229;-240316;-300082;-472721;
2025-01-20T22:31:27.231;790698663135352832;-238246;-240363;-300145;-472720;
2025-01-20T22:31:27.249;790698663153541248;-238376;-240471;-300335;-472805;
2025-01-20T22:31:27.268;790698663171729664;-238506;-240639;-300572;-472770;
2025-01-20T22:31:27.286;790698663189918208;-238731;-240859;-300805;-472790;
2025-01-20T22:31:27.304;790698663208106624;-238797;-240985;-300902;-472764;
2025-01-20T22:31:27.322;790698663226295168;-238947;-241138;-301031;-472756;
2025-01-20T22:31:27.340;790698663244483584;-238967;-241143;-301008;-472687;
2025-01-20T22:31:27.359;790698663262672128;-238902;-241144;-300951;-472760;
2025-01-20T22:31:27.377;790698663280860544;-238817;-240999;-300864;-472702;
2025-01-20T22:31:27.395;790698663299049088;-238746;-240899;-300710;-472770;
2025-01-20T22:31:27.413;790698663317237504;-238499;-240689;-300492;-472751;
2025-01-20T22:31:27.431;790698663335426048;-238295;-240545;-300305;-472784;
2025-01-20T22:31:27.450;790698663353614464;-238139;-240391;-300153;-472785;
2025-01-20T22:31:27.468;790698663371802880;-237995;-240176;-299944;-472793;
2025-01-20T22:31:27.486;790698663389991424;-237779;-239928;-299771;-472768;
2025-01-20T22:31:27.504;790698663408179840;-237689;-239768;-299599;-472730;
2025-01-20T22:31:27.522;790698663426368384;-237506;-239641;-299498;-472729;
2025-01-20T22:31:27.541;790698663444556800;-237299;-239421;-299367;-472677;
2025-01-20T22:31:27.559;790698663462745344;-237217;-239370;-299287;-472756;
2025-01-20T22:31:27.577;790698663480933760;-237031;-239225;-299184;-472756;
2025-01-20T22:31:27.595;790698663499122304;-236903;-239051;-299080;-472792;
2025-01-20T22:31:27.613;790698663517310720;-236724;-238884;-298901;-472756;
2025-01-20T22:31:27.631;790698663535499212;-236551;-238677;-298721;-472712;
2025-01-20T22:31:27.650;790698663553689216;-236353;-238529;-298511;-472726;
2025-01-20T22:31:27.668;790698663571879168;-236162;-238322;-298376;-472703;
2025-01-20T22:31:27.686;790698663590069120;-236108;-238354;-298387;-472741;
2025-01-20T22:31:27.704;790698663608259072;-236171;-238360;-298475;-472798;
2025-01-20T22:31:27.722;790698663626449024;-236236;-238426;-298627;-472771;
2025-01-20T22:31:27.741;790698663644638976;-236428;-238611;-298824;-472744;
2025-01-20T22:31:27.759;790698663662829056;-236567;-238827;-299014;-472763;
2025-01-20T22:31:27.777;790698663681019008;-236640;-238967;-299154;-472713;
2025-01-20T22:31:27.795;790698663699208960;-236651;-238982;-299186;-472715;
2025-01-20T22:31:27.813;790698663717398912;-236627;-238975;-299147;-472686;
2025-01-20T22:31:27.832;790698663735588864;-236587;-238887;-299095;-472744;
2025-01-20T22:31:27.850;790698663753778816;-236538;-238754;-298982;-472771;
2025-01-20T22:31:27.868;790698663771968768;-236331;-238583;-298789;-472764;
2025-01-20T22:31:27.886;790698663790158720;-236204;-238435;-298604;-472726;
2025-01-20T22:31:27.904;790698663808348672;-235947;-238234;-298435;-472751;
2025-01-20T22:31:27.922;790698663826538624;-235770;-238062;-298235;-472709;
2025-01-20T22:31:27.941;790698663844728576;-235594;-237931;-298019;-472753;
2025-01-20T22:31:27.959;790698663862918528;-235495;-237768;-297903;-472816;
2025-01-20T22:31:27.977;790698663881108608;-235325;-237544;-297736;-472773;
2025-01-20T22:31:27.995;790698663899298560;-235141;-237411;-297599;-472775;
2025-01-20T22:31:28.013;790698663917488512;-234941;-237254;-297433;-472728;
2025-01-20T22:31:28.032;790698663935678464;-234798;-237086;-297392;-472717;
2025-01-20T22:31:28.050;790698663953868416;-234651;-236909;-297278;-472761;
2025-01-20T22:31:28.068;790698663972058368;-234473;-236725;-297108;-472770;
2025-01-20T22:31:28.086;790698663990248320;-234261;-236559;-296888;-472694;
2025-01-20T22:31:28.104;790698664008438272;-234163;-236480;-296828;-472768;
2025-01-20T22:31:28.123;790698664026628224;-234052;-236238;-296668;-472811;
2025-01-20T22:31:28.141;790698664044818176;-233986;-236177;-296593;-472754;
2025-01-20T22:31:28.159;790698664063008128;-233955;-236223;-296678;-472762;
2025-01-20T22:31:28.177;790698664081198080;-234216;-236441;-296892;-472746;
2025-01-20T22:31:28.195;790698664099388160;-234334;-236636;-297122;-472773;
2025-01-20T22:31:28.214;790698664117578112;-234463;-236787;-297314;-472723;
2025-01-20T22:31:28.232;790698664135768064;-234583;-236961;-297455;-472756;
2025-01-20T22:31:28.250;790698664153958016;-234651;-237023;-297535;-472714;
2025-01-20T22:31:28.268;790698664172147968;-234649;-237014;-297538;-472723;
2025-01-20T22:31:28.286;790698664190337920;-234647;-236952;-297514;-472700;
2025-01-20T22:31:28.304;790698664208527872;-234535;-236870;-297393;-472791;
2025-01-20T22:31:28.323;790698664226717824;-234418;-236739;-297251;-472712;
2025-01-20T22:31:28.341;790698664244907776;-234247;-236600;-297061;-472764;
2025-01-20T22:31:28.359;790698664263097728;-234115;-236531;-296935;-472794;
2025-01-20T22:31:28.377;790698664281287680;-233989;-236361;-296777;-472768;
2025-01-20T22:31:28.395;790698664299477655;-233785;-236157;-296601;-472748;
2025-01-20T22:31:28.414;790698664317667968;-233627;-235994;-296393;-472745;
2025-01-20T22:31:28.432;790698664335858304;-233473;-235840;-296223;-472716;
2025-01-20T22:31:28.450;790698664354048768;-233372;-235654;-296169;-472715;
2025-01-20T22:31:28.468;790698664372239104;-233253;-235589;-296133;-472771;
2025-01-20T22:31:28.486;790698664390429568;-233063;-235455;-295952;-472771;
2025-01-20T22:31:28.505;790698664408619904;-232921;-235286;-295772;-472771;
2025-01-20T22:31:28.523;790698664426810368;-232799;-235149;-295726;-472692;
2025-01-20T22:31:28.541;790698664445000704;-232606;-234924;-295537;-472704;
2025-01-20T22:31:28.559;790698664463191168;-232536;-234853;-295442;-472745;
2025-01-20T22:31:28.577;790698664481381504;-232417;-234746;-295352;-472764;
2025-01-20T22:31:28.596;790698664499571968;-232347;-234704;-295394;-472731;
2025-01-20T22:31:28.614;790698664517762304;-232415;-234791;-295557;-472713;
2025-01-20T22:31:28.632;790698664535952768;-232571;-234990;-295777;-472703;
2025-01-20T22:31:28.650;790698664554143104;-232766;-235246;-295972;-472708;
2025-01-20T22:31:28.668;790698664572333568;-232983;-235439;-296181;-472730;
2025-01-20T22:31:28.686;790698664590523904;-233111;-235555;-296289;-472731;
2025-01-20T22:31:28.705;790698664608714368;-233235;-235611;-296355;-472680;
2025-01-20T22:31:28.723;790698664626904704;-233213;-235695;-296419;-472770;
2025-01-20T22:31:28.741;790698664645095168;-233215;-235638;-296457;-472692;
2025-01-20T22:31:28.759;790698664663285504;-233211;-235591;-296437;-472737;
2025-01-20T22:31:28.777;790698664681475968;-233151;-235510;-296352;-472757;
2025-01-20T22:31:28.796;790698664699666304;-233060;-235350;-296227;-472771;
2025-01-20T22:31:28.814;790698664717856768;-232957;-235224;-296110;-472747;
2025-01-20T22:31:28.832;790698664736047104;-232804;-235102;-296032;-472746;
2025-01-20T22:31:28.850;790698664754237568;-232684;-234978;-295925;-472800;
2025-01-20T22:31:28.868;790698664772427904;-232521;-234817;-295739;-472757;
2025-01-20T22:31:28.887;790698664790618368;-232399;-234745;-295616;-472721;
2025-01-20T22:31:28.905;790698664808808704;-232296;-234603;-295619;-472705;
2025-01-20T22:31:28.923;790698664826999168;-232217;-234475;-295484;-472733;
2025-01-20T22:31:28.941;790698664845189504;-232092;-234385;-295360;-472773;
2025-01-20T22:31:28.959;790698664863379968;-232008;-234294;-295289;-472815;
2025-01-20T22:31:28.978;790698664881570304;-231829;-234145;-295241;-472761;
2025-01-20T22:31:28.996;790698664899760768;-231808;-234095;-295096;-472794;
2025-01-20T22:31:29.014;790698664917951104;-231803;-234072;-295093;-472771;
2025-01-20T22:31:29.032;790698664936141568;-231788;-234072;-295167;-472746;
2025-01-20T22:31:29.050;790698664954331904;-231863;-234207;-295278;-472720;
2025-01-20T22:31:29.068;790698664972522368;-232046;-234392;-295472;-472746;
2025-01-20T22:31:29.087;790698664990712704;-232275;-234633;-295826;-472726;
2025-01-20T22:31:29.105;790698665008903168;-232433;-234863;-296058;-472765;
2025-01-20T22:31:29.123;790698665027093504;-232526;-234963;-296170;-472704;
2025-01-20T22:31:29.141;790698665045283968;-232579;-235066;-296199;-472745;
2025-01-20T22:31:29.159;790698665063474436;-232593;-235110;-296229;-472711;
2025-01-20T22:31:29.178;790698665081663104;-232603;-235110;-296244;-472787;
2025-01-20T22:31:29.196;790698665099851776;-232608;-235008;-296179;-472753;
2025-01-20T22:31:29.214;790698665118040576;-232520;-234920;-296054;-472760;
2025-01-20T22:31:29.232;790698665136229248;-232460;-234801;-295983;-472760;
2025-01-20T22:31:29.250;790698665154418048;-232280;-234684;-295844;-472756;
2025-01-20T22:31:29.269;790698665172606720;-232157;-234595;-295698;-472742;
2025-01-20T22:31:29.287;790698665190795520;-232058;-234498;-295537;-472723;
2025-01-20T22:31:29.305;790698665208984192;-232025;-234377;-295501;-472750;
2025-01-20T22:31:29.323;790698665227172864;-231951;-234328;-295409;-472732;
2025-01-20T22:31:29.341;790698665245361664;-231870;-234194;-295295;-472714;
2025-01-20T22:31:29.360;790698665263550336;-231653;-234129;-295173;-472730;
2025-01-20T22:31:29.378;790698665281739136;-231624;-233960;-295161;-472726;
2025-01-20T22:31:29.396;790698665299927808;-231466;-233803;-295049;-472728;
2025-01-20T22:31:29.414;790698665318116608;-231325;-233740;-294958;-472730;
2025-01-20T22:31:29.432;790698665336305280;-231269;-233641;-294945;-472800;
2025-01-20T22:31:29.450;790698665354494080;-231229;-233646;-294942;-472716;
2025-01-20T22:31:29.469;790698665372682752;-231384;-233830;-295085;-472767;
2025-01-20T22:31:29.487;790698665390871424;-231532;-233987;-295262;-472629;
2025-01-20T22:31:29.505;790698665409060224;-231894;-234414;-295676;-472722;
2025-01-20T22:31:29.523;790698665427248896;-232193;-234688;-295991;-472756;
2025-01-20T22:31:29.541;790698665445437696;-232403;-235000;-296289;-472717;
2025-01-20T22:31:29.560;790698665463626368;-232626;-235240;-296521;-472677;
2025-01-20T22:31:29.578;790698665481815168;-232825;-235445;-296714;-472742;
2025-01-20T22:31:29.596;790698665500003840;-232957;-235470;-296771;-472731;
2025-01-20T22:31:29.614;790698665518192640;-233031;-235494;-296798;-472742;
2025-01-20T22:31:29.632;790698665536381312;-232989;-235500;-296788;-472709;
2025-01-20T22:31:29.651;790698665554569984;-232980;-235457;-296697;-472737;
2025-01-20T22:31:29.669;790698665572758784;-232936;-235404;-296581;-472706;
2025-01-20T22:31:29.687;790698665590947456;-232928;-235366;-296554;-472722;
2025-01-20T22:31:29.705;790698665609136256;-232781;-235238;-296414;-472720;
2025-01-20T22:31:29.723;790698665627324928;-232763;-235142;-296331;-472710;
2025-01-20T22:31:29.741;790698665645513728;-232648;-235073;-296232;-472730;
2025-01-20T22:31:29.760;790698665663702400;-232571;-234991;-296176;-472766;
2025-01-20T22:31:29.778;790698665681891072;-232522;-234883;-296059;-472728;
2025-01-20T22:31:29.796;790698665700079872;-232451;-234804;-295991;-472777;
2025-01-20T22:31:29.814;790698665718268544;-232316;-234731;-295942;-472731;
2025-01-20T22:31:29.832;790698665736457344;-232161;-234554;-295783;-472763;
2025-01-20T22:31:29.851;790698665754646016;-232109;-234450;-295757;-472714;
2025-01-20T22:31:29.869;790698665772834816;-231994;-234383;-295740;-472782;
2025-01-20T22:31:29.887;790698665791023488;-232048;-234486;-295739;-472714;
2025-01-20T22:31:29.905;790698665809212160;-232266;-234681;-295920;-472698;
2025-01-20T22:31:29.923;790698665827401012;-232552;-234968;-296308;-472727;
2025-01-20T22:31:29.942;790698665845589632;-232881;-235371;-296705;-472719;
2025-01-20T22:31:29.960;790698665863778304;-233234;-235825;-297107;-472736;
2025-01-20T22:31:29.978;790698665881966848;-233515;-236045;-297306;-472727;
2025-01-20T22:31:29.996;790698665900155520;-233866;-236260;-297553;-472765;
2025-01-20T22:31:30.014;790698665918344064;-234015;-236480;-297673;-472711;
2025-01-20T22:31:30.032;790698665936532736;-234114;-236520;-297781;-472695;
2025-01-20T22:31:30.051;790698665954721408;-234125;-236506;-297770;-472719;
2025-01-20T22:31:30.069;790698665972909952;-234214;-236558;-297864;-472784;
2025-01-20T22:31:30.087;790698665991098624;-234079;-236456;-297740;-472734;
2025-01-20T22:31:30.105;790698666009287168;-233981;-236315;-297637;-472755;
2025-01-20T22:31:30.123;790698666027475840;-233893;-236261;-297545;-472720;
2025-01-20T22:31:30.142;790698666045664384;-233779;-236096;-297393;-472635;
2025-01-20T22:31:30.160;790698666063853056;-233716;-236017;-297303;-472692;
2025-01-20T22:31:30.178;790698666082041728;-233739;-235967;-297232;-472711;
2025-01-20T22:31:30.196;790698666100230272;-233662;-235877;-297142;-472694;
2025-01-20T22:31:30.214;790698666118418944;-233667;-235841;-297137;-472730;
2025-01-20T22:31:30.233;790698666136607488;-233574;-235759;-297049;-472708;
2025-01-20T22:31:30.251;790698666154796160;-233506;-235709;-297062;-472686;
2025-01-20T22:31:30.269;790698666172984832;-233482;-235648;-297019;-472771;
2025-01-20T22:31:30.287;790698666191173376;-233356;-235500;-296890;-472677;
2025-01-20T22:31:30.305;790698666209362048;-233276;-235443;-296914;-472683;
2025-01-20T22:31:30.324;790698666227550592;-233351;-235472;-297040;-472704;
2025-01-20T22:31:30.342;790698666245739264;-233605;-235760;-297346;-472719;
2025-01-20T22:31:30.360;790698666263927808;-234002;-236138;-297756;-472736;
2025-01-20T22:31:30.378;790698666282116480;-234443;-236549;-298202;-472757;
2025-01-20T22:31:30.396;790698666300305152;-234872;-237025;-298650;-472714;
2025-01-20T22:31:30.414;790698666318493696;-235193;-237352;-298901;-472695;
2025-01-20T22:31:30.433;790698666336682368;-235483;-237616;-299067;-472681;
2025-01-20T22:31:30.451;790698666354870912;-235762;-237795;-299212;-472665;
2025-01-20T22:31:30.469;790698666373059584;-235906;-237965;-299333;-472674;
2025-01-20T22:31:30.487;790698666391248256;-235949;-238016;-299492;-472677;
2025-01-20T22:31:30.505;790698666409436800;-235870;-238049;-299453;-472708;
2025-01-20T22:31:30.524;790698666427625472;-235845;-237881;-299348;-472772;
2025-01-20T22:31:30.542;790698666445814016;-235724;-237739;-299190;-472703;
2025-01-20T22:31:30.560;790698666464002688;-235656;-237608;-299074;-472711;
2025-01-20T22:31:30.578;790698666482191360;-235429;-237343;-298820;-472652;
2025-01-20T22:31:30.596;790698666500379904;-235333;-237210;-298771;-472723;
2025-01-20T22:31:30.615;790698666518568576;-235104;-237072;-298537;-472690;
2025-01-20T22:31:30.633;790698666536757120;-235033;-237005;-298481;-472706;
2025-01-20T22:31:30.651;790698666554945792;-234967;-236952;-298366;-472721;
2025-01-20T22:31:30.669;790698666573134336;-235002;-236923;-298396;-472728;
2025-01-20T22:31:30.687;790698666591323010;-235001;-236933;-298313;-472784;
2025-01-20T22:31:30.705;790698666609512448;-234971;-236804;-298165;-472726;
2025-01-20T22:31:30.724;790698666627701888;-234788;-236734;-298061;-472683;
2025-01-20T22:31:30.742;790698666645891200;-234692;-236628;-297950;-472705;
2025-01-20T22:31:30.760;790698666664080640;-234784;-236696;-298026;-472710;
2025-01-20T22:31:30.778;790698666682269952;-234965;-236919;-298299;-472765;
2025-01-20T22:31:30.796;790698666700459392;-235335;-237278;-298717;-472762;
2025-01-20T22:31:30.815;790698666718648704;-235800;-237677;-299144;-472753;
2025-01-20T22:31:30.833;790698666736838144;-236134;-238134;-299493;-472705;
2025-01-20T22:31:30.851;790698666755027456;-236516;-238444;-299831;-472745;
2025-01-20T22:31:30.869;790698666773216896;-236764;-238729;-300038;-472727;
2025-01-20T22:31:30.887;790698666791406208;-236982;-238941;-300176;-472675;
2025-01-20T22:31:30.906;790698666809595648;-237127;-239022;-300210;-472720;
2025-01-20T22:31:30.924;790698666827785088;-237183;-239056;-300213;-472739;
2025-01-20T22:31:30.942;790698666845974400;-237225;-239042;-300225;-472689;
2025-01-20T22:31:30.960;790698666864163840;-237177;-239023;-300173;-472717;
2025-01-20T22:31:30.978;790698666882353152;-237109;-238943;-300139;-472723;
2025-01-20T22:31:30.996;790698666900542592;-237082;-238872;-300100;-472721;
2025-01-20T22:31:31.015;790698666918731904;-236964;-238771;-299972;-472736;
2025-01-20T22:31:31.033;790698666936921344;-236894;-238663;-299854;-472704;
2025-01-20T22:31:31.051;790698666955110656;-236809;-238590;-299769;-472712;
2025-01-20T22:31:31.069;790698666973300096;-236825;-238584;-299805;-472762;
2025-01-20T22:31:31.087;790698666991489408;-236769;-238492;-299764;-472790;
2025-01-20T22:31:31.106;790698667009678848;-236716;-238422;-299644;-472727;
2025-01-20T22:31:31.124;790698667027868288;-236751;-238343;-299545;-472721;
2025-01-20T22:31:31.142;790698667046057600;-236668;-238328;-299515;-472743;
2025-01-20T22:31:31.160;790698667064247040;-236645;-238271;-299467;-472730;
2025-01-20T22:31:31.178;790698667082436352;-236612;-238242;-299420;-472720;
2025-01-20T22:31:31.197;790698667100625792;-236572;-238197;-299487;-472750;
2025-01-20T22:31:31.215;790698667118815104;-236719;-238329;-299656;-472760;
2025-01-20T22:31:31.233;790698667137004544;-237095;-238755;-300072;-472719;
2025-01-20T22:31:31.251;790698667155193856;-237576;-239204;-300538;-472744;
2025-01-20T22:31:31.269;790698667173383296;-238014;-239686;-300994;-472758;
2025-01-20T22:31:31.288;790698667191572608;-238494;-240031;-301327;-472784;
2025-01-20T22:31:31.306;790698667209762048;-238828;-240383;-301607;-472794;
2025-01-20T22:31:31.324;790698667227951488;-239035;-240605;-301757;-472737;
2025-01-20T22:31:31.342;790698667246140800;-239158;-240748;-301846;-472791;
2025-01-20T22:31:31.360;790698667264330240;-239241;-240790;-301857;-472764;
2025-01-20T22:31:31.378;790698667282519552;-239271;-240849;-301916;-472823;
2025-01-20T22:31:31.397;790698667300708992;-239231;-240712;-301754;-472812;
2025-01-20T22:31:31.415;790698667318898304;-239134;-240743;-301613;-472725;
2025-01-20T22:31:31.433;790698667337087744;-239080;-240540;-301494;-472699;
2025-01-20T22:31:31.451;790698667355277052;-238998;-240442;-301419;-472704;
2025-01-20T22:31:31.469;790698667373465216;-238968;-240424;-301387;-472789;
2025-01-20T22:31:31.488;790698667391653376;-238910;-240280;-301259;-472740;
2025-01-20T22:31:31.506;790698667409841536;-238860;-240238;-301234;-472690;
2025-01-20T22:31:31.524;790698667428029824;-238777;-240177;-301126;-472722;
2025-01-20T22:31:31.542;790698667446217984;-238727;-240075;-301118;-472698;
2025-01-20T22:31:31.560;790698667464406144;-238709;-240056;-300986;-472688;
2025-01-20T22:31:31.579;790698667482594304;-238641;-240053;-300922;-472705;
2025-01-20T22:31:31.597;790698667500782464;-238492;-239904;-300795;-472723;
2025-01-20T22:31:31.615;790698667518970624;-238385;-239829;-300749;-472787;
2025-01-20T22:31:31.633;790698667537158912;-238250;-239736;-300594;-472743;
2025-01-20T22:31:31.651;790698667555347072;-238338;-239787;-300632;-472773;
2025-01-20T22:31:31.669;790698667573535232;-238576;-240083;-300938;-472804;
2025-01-20T22:31:31.688;790698667591723392;-238967;-240419;-301313;-472808;
2025-01-20T22:31:31.706;790698667609911552;-239468;-240863;-301772;-472789;
2025-01-20T22:31:31.724;790698667628099840;-239810;-241274;-302140;-472785;
2025-01-20T22:31:31.742;790698667646288000;-240093;-241603;-302288;-472685;
2025-01-20T22:31:31.760;790698667664476160;-240355;-241874;-302479;-472770;
2025-01-20T22:31:31.779;790698667682664320;-240502;-242025;-302633;-472781;
2025-01-20T22:31:31.797;790698667700852480;-240554;-242015;-302651;-472758;
2025-01-20T22:31:31.815;790698667719040640;-240562;-242083;-302638;-472750;
2025-01-20T22:31:31.833;790698667737228928;-240494;-241985;-302540;-472716;
2025-01-20T22:31:31.851;790698667755417088;-240396;-241918;-302437;-472729;
2025-01-20T22:31:31.870;790698667773605248;-240305;-241803;-302286;-472727;
2025-01-20T22:31:31.888;790698667791793408;-240150;-241623;-302108;-472764;
2025-01-20T22:31:31.906;790698667809981568;-240107;-241570;-301983;-472798;
2025-01-20T22:31:31.924;790698667828169856;-239923;-241480;-301872;-472813;
2025-01-20T22:31:31.942;790698667846358016;-239819;-241366;-301813;-472726;
2025-01-20T22:31:31.961;790698667864546176;-239793;-241230;-301753;-472766;
2025-01-20T22:31:31.979;790698667882734336;-239684;-241200;-301668;-472732;
2025-01-20T22:31:31.997;790698667900922496;-239645;-241151;-301576;-472740;
2025-01-20T22:31:32.015;790698667919110656;-239553;-241138;-301558;-472765;
2025-01-20T22:31:32.033;790698667937298944;-239521;-241028;-301452;-472739;
2025-01-20T22:31:32.051;790698667955487104;-239307;-240831;-301219;-472686;
2025-01-20T22:31:32.070;790698667973675264;-239249;-240791;-301171;-472730;
2025-01-20T22:31:32.088;790698667991863424;-239259;-240846;-301229;-472775;
2025-01-20T22:31:32.106;790698668010051584;-239481;-241028;-301447;-472690;
2025-01-20T22:31:32.124;790698668028239744;-239865;-241423;-301907;-472723;
2025-01-20T22:31:32.142;790698668046428032;-240287;-241801;-302256;-472702;
2025-01-20T22:31:32.161;790698668064616192;-240615;-242171;-302611;-472696;
2025-01-20T22:31:32.179;790698668082804352;-240971;-242607;-302956;-472733;
2025-01-20T22:31:32.197;790698668100992512;-241204;-242789;-303085;-472689;
2025-01-20T22:31:32.215;790698668119180740;-241378;-243015;-303285;-472731;
2025-01-20T22:31:32.233;790698668137368832;-241432;-243146;-303293;-472708;
2025-01-20T22:31:32.252;790698668155556864;-241444;-243211;-303249;-472760;
2025-01-20T22:31:32.270;790698668173744896;-241405;-243186;-303150;-472731;
2025-01-20T22:31:32.288;790698668191932800;-241312;-242986;-302994;-472724;
2025-01-20T22:31:32.306;790698668210120832;-241202;-242879;-302888;-472715;
2025-01-20T22:31:32.324;790698668228308864;-241030;-242725;-302773;-472760;
2025-01-20T22:31:32.342;790698668246496896;-240983;-242558;-302594;-472762;
2025-01-20T22:31:32.361;790698668264684800;-240764;-242502;-302479;-472730;
2025-01-20T22:31:32.379;790698668282872832;-240710;-242354;-302483;-472776;
2025-01-20T22:31:32.397;790698668301060864;-240631;-242268;-302393;-472742;
2025-01-20T22:31:32.415;790698668319248896;-240560;-242240;-302339;-472744;
2025-01-20T22:31:32.433;790698668337436800;-240454;-242108;-302211;-472707;
2025-01-20T22:31:32.452;790698668355624832;-240345;-241996;-302157;-472712;
2025-01-20T22:31:32.470;790698668373812864;-240367;-242005;-302046;-472743;
2025-01-20T22:31:32.488;790698668392000896;-240246;-241876;-301935;-472703;
2025-01-20T22:31:32.506;790698668410188800;-240257;-241822;-301980;-472731;
2025-01-20T22:31:32.524;790698668428376832;-240357;-241939;-302103;-472699;
2025-01-20T22:31:32.543;790698668446564864;-240605;-242278;-302360;-472805;
2025-01-20T22:31:32.561;790698668464752896;-241010;-242706;-302743;-472778;
2025-01-20T22:31:32.579;790698668482940800;-241437;-243151;-303230;-472724;
2025-01-20T22:31:32.597;790698668501128832;-241798;-243596;-303465;-472715;
2025-01-20T22:31:32.615;790698668519316864;-242087;-243852;-303743;-472744;
2025-01-20T22:31:32.633;790698668537504896;-242240;-244032;-303904;-472717;
2025-01-20T22:31:32.652;790698668555692800;-242324;-244147;-303893;-472725;
2025-01-20T22:31:32.670;790698668573880832;-242480;-244214;-303979;-472755;
2025-01-20T22:31:32.688;790698668592068864;-242453;-244222;-303899;-472730;
2025-01-20T22:31:32.706;790698668610256896;-242453;-244206;-303856;-472723;
2025-01-20T22:31:32.724;790698668628444928;-242273;-244062;-303685;-472639;
2025-01-20T22:31:32.743;790698668646632832;-242192;-243870;-303530;-472726;
2025-01-20T22:31:32.761;790698668664820864;-242108;-243811;-303431;-472757;
2025-01-20T22:31:32.779;790698668683008896;-241988;-243691;-303302;-472742;
2025-01-20T22:31:32.797;790698668701196928;-241855;-243604;-303204;-472763;
2025-01-20T22:31:32.815;790698668719384832;-241748;-243502;-303056;-472758;
2025-01-20T22:31:32.834;790698668737572864;-241630;-243351;-302936;-472772;
2025-01-20T22:31:32.852;790698668755760896;-241595;-243277;-302883;-472707;
2025-01-20T22:31:32.870;790698668773948928;-241480;-243195;-302773;-472741;
2025-01-20T22:31:32.888;790698668792136832;-241362;-243089;-302747;-472761;
2025-01-20T22:31:32.906;790698668810324864;-241203;-242939;-302584;-472756;
2025-01-20T22:31:32.924;790698668828512896;-241084;-242879;-302568;-472724;
2025-01-20T22:31:32.943;790698668846700928;-241164;-242999;-302661;-472722;
2025-01-20T22:31:32.961;790698668864888832;-241285;-243198;-302786;-472737;
2025-01-20T22:31:32.979;790698668883076798;-241560;-243576;-303070;-472771;
2025-01-20T22:31:32.997;790698668901264768;-241890;-243999;-303442;-472780;
2025-01-20T22:31:33.015;790698668919452800;-242188;-244257;-303733;-472729;
2025-01-20T22:31:33.034;790698668937640832;-242490;-244566;-303952;-472798;
2025-01-20T22:31:33.052;790698668955828736;-242560;-244747;-304022;-472744;
2025-01-20T22:31:33.070;790698668974016768;-242676;-244837;-304109;-472758;
2025-01-20T22:31:33.088;790698668992204800;-242662;-244864;-304032;-472714;
2025-01-20T22:31:33.106;790698669010392832;-242595;-244812;-304048;-472748;
2025-01-20T22:31:33.125;790698669028580736;-242612;-244728;-303949;-472740;
2025-01-20T22:31:33.143;790698669046768768;-242527;-244579;-303785;-472719;
2025-01-20T22:31:33.161;790698669064956800;-242349;-244433;-303640;-472662;
2025-01-20T22:31:33.179;790698669083144832;-242264;-244338;-303558;-472708;
2025-01-20T22:31:33.197;790698669101332736;-242075;-244147;-303392;-472739;
2025-01-20T22:31:33.215;790698669119520768;-241959;-243986;-303208;-472666;
2025-01-20T22:31:33.234;790698669137708800;-241834;-243854;-303171;-472702;
2025-01-20T22:31:33.252;790698669155896832;-241783;-243693;-303015;-472749;
2025-01-20T22:31:33.270;790698669174084736;-241653;-243589;-302977;-472736;
2025-01-20T22:31:33.288;790698669192272768;-241486;-243402;-302801;-472693;
2025-01-20T22:31:33.306;790698669210460800;-241354;-243288;-302704;-472776;
2025-01-20T22:31:33.325;790698669228648832;-241117;-243102;-302497;-472748;
2025-01-20T22:31:33.343;790698669246836736;-240969;-242897;-302433;-472745;
2025-01-20T22:31:33.361;790698669265024768;-240884;-242901;-302407;-472743;
2025-01-20T22:31:33.379;790698669283212800;-240968;-243035;-302535;-472753;
2025-01-20T22:31:33.397;790698669301400832;-241276;-243419;-302910;-472746;
2025-01-20T22:31:33.416;790698669319588736;-241547;-243749;-303175;-472766;
2025-01-20T22:31:33.434;790698669337776768;-241823;-244079;-303459;-472731;
2025-01-20T22:31:33.452;790698669355964800;-242098;-244376;-303672;-472689;
2025-01-20T22:31:33.470;790698669374152832;-242343;-244580;-303933;-472725;
2025-01-20T22:31:33.488;790698669392340864;-242523;-244767;-304098;-472727;
2025-01-20T22:31:33.506;790698669410528768;-242727;-244828;-304221;-472761;
2025-01-20T22:31:33.525;790698669428716800;-242731;-244808;-304208;-472706;
2025-01-20T22:31:33.543;790698669446904832;-242773;-244833;-304242;-472724;
2025-01-20T22:31:33.561;790698669465092864;-242640;-244745;-304078;-472682;
2025-01-20T22:31:33.579;790698669483280768;-242555;-244719;-303966;-472722;
2025-01-20T22:31:33.597;790698669501468800;-242219;-244502;-303684;-472707;
2025-01-20T22:31:33.616;790698669519656832;-241922;-244310;-303366;-472710;
2025-01-20T22:31:33.634;790698669537844864;-241652;-244034;-303157;-472737;
2025-01-20T22:31:33.652;790698669556032768;-241312;-243718;-302846;-472712;
2025-01-20T22:31:33.670;790698669574220800;-241049;-243540;-302594;-472716;
2025-01-20T22:31:33.688;790698669592408832;-240846;-243413;-302499;-472708;
2025-01-20T22:31:33.707;790698669610596864;-240683;-243284;-302350;-472753;
2025-01-20T22:31:33.725;790698669628784768;-240545;-243224;-302299;-472750;
2025-01-20T22:31:33.743;790698669646972856;-240465;-243128;-302172;-472741;
2025-01-20T22:31:33.761;790698669665161088;-240304;-242987;-302077;-472703;
2025-01-20T22:31:33.779;790698669683349376;-240230;-242955;-302003;-472739;
2025-01-20T22:31:33.797;790698669701537536;-240269;-243070;-302198;-472759;
2025-01-20T22:31:33.816;790698669719725824;-240538;-243375;-302421;-472767;
2025-01-20T22:31:33.834;790698669737914112;-240956;-243786;-302911;-472756;
2025-01-20T22:31:33.852;790698669756102400;-241357;-244246;-303350;-472757;
2025-01-20T22:31:33.870;790698669774290560;-241699;-244669;-303676;-472674;
2025-01-20T22:31:33.888;790698669792478848;-242053;-245134;-304044;-472725;
2025-01-20T22:31:33.907;790698669810667136;-242240;-245423;-304204;-472751;
2025-01-20T22:31:33.925;790698669828855424;-242372;-245691;-304305;-472728;
2025-01-20T22:31:33.943;790698669847043584;-242490;-245885;-304376;-472710;
2025-01-20T22:31:33.961;790698669865231872;-242550;-245921;-304386;-472771;
2025-01-20T22:31:33.979;790698669883420160;-242514;-245873;-304246;-472745;
2025-01-20T22:31:33.998;790698669901608448;-242403;-245764;-304146;-472703;
2025-01-20T22:31:34.016;790698669919796608;-242264;-245683;-303984;-472726;
2025-01-20T22:31:34.034;790698669937984896;-242065;-245521;-303828;-472698;
2025-01-20T22:31:34.052;790698669956173184;-241979;-245371;-303718;-472744;
2025-01-20T22:31:34.070;790698669974361472;-241775;-245202;-303515;-472694;
2025-01-20T22:31:34.089;790698669992549632;-241703;-245123;-303459;-472720;
2025-01-20T22:31:34.107;790698670010737920;-241551;-244964;-303359;-472734;
2025-01-20T22:31:34.125;790698670028926208;-241478;-244836;-303238;-472737;
2025-01-20T22:31:34.143;790698670047114496;-241369;-244744;-303104;-472729;
2025-01-20T22:31:34.161;790698670065302656;-241259;-244680;-303013;-472759;
2025-01-20T22:31:34.179;790698670083490944;-241240;-244590;-302931;-472747;
2025-01-20T22:31:34.198;790698670101679232;-241085;-244459;-302789;-472739;
2025-01-20T22:31:34.216;790698670119867520;-241019;-244457;-302745;-472732;
2025-01-20T22:31:34.234;790698670138055680;-241098;-244589;-302908;-472745;
2025-01-20T22:31:34.252;790698670156243968;-241332;-244821;-303196;-472736;
2025-01-20T22:31:34.270;790698670174432256;-241722;-245284;-303566;-472705;
2025-01-20T22:31:34.289;790698670192620544;-242047;-245747;-303946;-472697;
2025-01-20T22:31:34.307;790698670210808704;-242462;-246257;-304272;-472746;
2025-01-20T22:31:34.325;790698670228996992;-242752;-246603;-304508;-472742;
2025-01-20T22:31:34.343;790698670247185280;-242916;-246798;-304646;-472708;
2025-01-20T22:31:34.361;790698670265373568;-243145;-247021;-304725;-472726;
2025-01-20T22:31:34.380;790698670283561728;-243217;-247140;-304818;-472753;
2025-01-20T22:31:34.398;790698670301750016;-243217;-247140;-304737;-472723;
2025-01-20T22:31:34.416;790698670319938304;-243161;-247105;-304697;-472805;
2025-01-20T22:31:34.434;790698670338126592;-243124;-247057;-304643;-472762;
2025-01-20T22:31:34.452;790698670356314752;-243030;-246920;-304476;-472724;
2025-01-20T22:31:34.470;790698670374503040;-243014;-246765;-304405;-472712;
2025-01-20T22:31:34.489;790698670392691328;-242961;-246554;-304310;-472743;
2025-01-20T22:31:34.507;790698670410879594;-242861;-246397;-304258;-472707;
2025-01-20T22:31:34.525;790698670429066880;-242763;-246240;-304133;-472653;
2025-01-20T22:31:34.543;790698670447254144;-242591;-246122;-303996;-472703;
2025-01-20T22:31:34.561;790698670465441280;-242455;-246137;-303909;-472740;
2025-01-20T22:31:34.580;790698670483628544;-242361;-246057;-303842;-472777;
2025-01-20T22:31:34.598;790698670501815680;-242220;-246002;-303746;-472756;
2025-01-20T22:31:34.616;790698670520002944;-242079;-245796;-303540;-472758;
2025-01-20T22:31:34.634;790698670538190080;-241886;-245568;-303374;-472734;
2025-01-20T22:31:34.652;790698670556377344;-241772;-245444;-303336;-472732;
2025-01-20T22:31:34.671;790698670574564480;-241754;-245515;-303399;-472691;
2025-01-20T22:31:34.689;790698670592751744;-242012;-245808;-303662;-472742;
2025-01-20T22:31:34.707;790698670610938880;-242244;-246144;-303937;-472744;
2025-01-20T22:31:34.725;790698670629126144;-242656;-246544;-304263;-472802;
2025-01-20T22:31:34.743;790698670647313280;-242853;-246926;-304534;-472753;
2025-01-20T22:31:34.761;790698670665500544;-243098;-247239;-304743;-472683;
2025-01-20T22:31:34.780;790698670683687680;-243297;-247528;-304915;-472733;
2025-01-20T22:31:34.798;790698670701874944;-243447;-247574;-304928;-472726;
2025-01-20T22:31:34.816;790698670720062080;-243443;-247623;-304904;-472744;
2025-01-20T22:31:34.834;790698670738249344;-243350;-247516;-304875;-472702;
2025-01-20T22:31:34.852;790698670756436480;-243266;-247428;-304786;-472773;
2025-01-20T22:31:34.871;790698670774623744;-243183;-247354;-304650;-472739;
2025-01-20T22:31:34.889;790698670792810880;-243067;-247282;-304512;-472748;
2025-01-20T22:31:34.907;790698670810998144;-242944;-247191;-304364;-472768;
2025-01-20T22:31:34.925;790698670829185280;-242771;-247017;-304207;-472773;
2025-01-20T22:31:34.943;790698670847372544;-242607;-246871;-304008;-472807;
2025-01-20T22:31:34.962;790698670865559680;-242432;-246689;-303859;-472736;
2025-01-20T22:31:34.980;790698670883746944;-242311;-246504;-303688;-472757;
2025-01-20T22:31:34.998;790698670901934080;-242134;-246382;-303575;-472744;
2025-01-20T22:31:35.016;790698670920121344;-242097;-246293;-303464;-472796;
2025-01-20T22:31:35.034;790698670938308480;-241900;-246146;-303320;-472723;
2025-01-20T22:31:35.052;790698670956495744;-241799;-245946;-303183;-472693;
2025-01-20T22:31:35.071;790698670974682880;-241566;-245793;-303006;-472716;
2025-01-20T22:31:35.089;790698670992870144;-241564;-245688;-302922;-472706;
2025-01-20T22:31:35.107;790698671011057408;-241459;-245690;-302851;-472692;
2025-01-20T22:31:35.125;790698671029244544;-241532;-245818;-303033;-472696;
2025-01-20T22:31:35.143;790698671047431808;-241793;-246025;-303326;-472741;
2025-01-20T22:31:35.162;790698671065618944;-242057;-246380;-303606;-472691;
2025-01-20T22:31:35.180;790698671083806208;-242303;-246804;-303923;-472712;
2025-01-20T22:31:35.198;790698671101993344;-242654;-247189;-304222;-472758;
2025-01-20T22:31:35.216;790698671120180608;-242860;-247400;-304434;-472747;
2025-01-20T22:31:35.234;790698671138367744;-243015;-247551;-304507;-472733;
2025-01-20T22:31:35.253;790698671156555008;-243065;-247680;-304569;-472770;
2025-01-20T22:31:35.271;790698671174742082;-243104;-247682;-304507;-472716;
2025-01-20T22:31:35.289;790698671192929920;-243113;-247729;-304450;-472741;
2025-01-20T22:31:35.307;790698671211117696;-243047;-247650;-304335;-472700;
2025-01-20T22:31:35.325;790698671229305600;-242970;-247537;-304251;-472738;
2025-01-20T22:31:35.343;790698671247493376;-242751;-247303;-304054;-472725;
2025-01-20T22:31:35.362;790698671265681152;-242665;-247225;-303937;-472711;
2025-01-20T22:31:35.380;790698671283869056;-242491;-247105;-303764;-472738;
2025-01-20T22:31:35.398;790698671302056832;-242294;-246877;-303583;-472707;
2025-01-20T22:31:35.416;790698671320244608;-242110;-246757;-303393;-472724;
2025-01-20T22:31:35.434;790698671338432512;-241975;-246609;-303291;-472732;
2025-01-20T22:31:35.453;790698671356620288;-241815;-246436;-303177;-472706;
2025-01-20T22:31:35.471;790698671374808064;-241650;-246331;-303025;-472746;
2025-01-20T22:31:35.489;790698671392995968;-241565;-246168;-302888;-472812;
2025-01-20T22:31:35.507;790698671411183744;-241399;-245963;-302693;-472762;
2025-01-20T22:31:35.525;790698671429371520;-241232;-245792;-302582;-472799;
2025-01-20T22:31:35.544;790698671447559424;-240990;-245639;-302359;-472683;
2025-01-20T22:31:35.562;790698671465747200;-240948;-245554;-302316;-472687;
2025-01-20T22:31:35.580;790698671483934976;-241027;-245625;-302389;-472702;
2025-01-20T22:31:35.598;790698671502122880;-241285;-245883;-302715;-472739;
2025-01-20T22:31:35.616;790698671520310656;-241534;-246193;-303094;-472750;
2025-01-20T22:31:35.634;790698671538498432;-241715;-246460;-303301;-472739;
2025-01-20T22:31:35.653;790698671556686336;-241936;-246782;-303588;-472732;
2025-01-20T22:31:35.671;790698671574874112;-242154;-246957;-303647;-472732;
2025-01-20T22:31:35.689;790698671593062016;-242268;-247106;-303820;-472767;
2025-01-20T22:31:35.707;790698671611249792;-242267;-247161;-303781;-472751;
2025-01-20T22:31:35.725;790698671629437568;-242171;-247106;-303753;-472708;
2025-01-20T22:31:35.744;790698671647625472;-242158;-247036;-303654;-472727;
2025-01-20T22:31:35.762;790698671665813248;-242042;-246895;-303530;-472689;
2025-01-20T22:31:35.780;790698671684001024;-241805;-246704;-303361;-472673;
2025-01-20T22:31:35.798;790698671702188928;-241718;-246567;-303213;-472710;
2025-01-20T22:31:35.816;790698671720376704;-241616;-246497;-303120;-472774;
2025-01-20T22:31:35.835;790698671738564480;-241393;-246222;-302911;-472660;
2025-01-20T22:31:35.853;790698671756752384;-241308;-246070;-302792;-472672;
2025-01-20T22:31:35.871;790698671774940160;-241082;-245878;-302635;-472683;
2025-01-20T22:31:35.889;790698671793127936;-240887;-245679;-302449;-472729;
2025-01-20T22:31:35.907;790698671811315840;-240799;-245587;-302310;-472743;
2025-01-20T22:31:35.925;790698671829503616;-240635;-245344;-302194;-472706;
2025-01-20T22:31:35.944;790698671847691392;-240450;-245225;-302082;-472747;
2025-01-20T22:31:35.962;790698671865879296;-240309;-244977;-301958;-472746;
2025-01-20T22:31:35.980;790698671884067072;-240091;-244793;-301807;-472736;
2025-01-20T22:31:35.998;790698671902254848;-239965;-244634;-301674;-472736;
2025-01-20T22:31:36.016;790698671920442752;-239841;-244570;-301586;-472731;
2025-01-20T22:31:36.035;790698671938630512;-239856;-244531;-301641;-472756;
2025-01-20T22:31:36.053;790698671956819200;-240024;-244741;-301851;-472706;
2025-01-20T22:31:36.071;790698671975007872;-240229;-244926;-302112;-472712;
2025-01-20T22:31:36.089;790698671993196672;-240505;-245219;-302418;-472745;
2025-01-20T22:31:36.107;790698672011385344;-240673;-245412;-302583;-472726;
2025-01-20T22:31:36.126;790698672029574144;-240827;-245495;-302781;-472724;
2025-01-20T22:31:36.144;790698672047762816;-240926;-245560;-302890;-472694;
2025-01-20T22:31:36.162;790698672065951616;-240930;-245542;-302886;-472699;
2025-01-20T22:31:36.180;790698672084140288;-240899;-245543;-302918;-472714;
2025-01-20T22:31:36.198;790698672102329088;-240857;-245457;-302841;-472690;
2025-01-20T22:31:36.216;790698672120517760;-240672;-245297;-302683;-472683;
2025-01-20T22:31:36.235;790698672138706432;-240584;-245099;-302536;-472761;
2025-01-20T22:31:36.253;790698672156895232;-240380;-244965;-302413;-472732;
2025-01-20T22:31:36.271;790698672175083904;-240210;-244766;-302235;-472740;
2025-01-20T22:31:36.289;790698672193272704;-240017;-244538;-302107;-472760;
2025-01-20T22:31:36.307;790698672211461376;-239802;-244298;-301856;-472742;
2025-01-20T22:31:36.326;790698672229650176;-239685;-244192;-301761;-472757;
2025-01-20T22:31:36.344;790698672247838848;-239438;-243942;-301651;-472772;
2025-01-20T22:31:36.362;790698672266027520;-239238;-243764;-301447;-472757;
2025-01-20T22:31:36.380;790698672284216320;-239070;-243464;-301266;-472785;
2025-01-20T22:31:36.398;790698672302404992;-238833;-243160;-301073;-472788;
2025-01-20T22:31:36.417;790698672320593792;-238666;-243009;-300902;-472830;
2025-01-20T22:31:36.435;790698672338782464;-238380;-242711;-300700;-472725;
2025-01-20T22:31:36.453;790698672356971264;-238085;-242450;-300423;-472670;
2025-01-20T22:31:36.471;790698672375159936;-237934;-242258;-300356;-472687;
2025-01-20T22:31:36.489;790698672393348608;-237863;-242174;-300323;-472656;
2025-01-20T22:31:36.507;790698672411537408;-237991;-242275;-300481;-472705;
2025-01-20T22:31:36.526;790698672429726080;-238117;-242423;-300674;-472794;
2025-01-20T22:31:36.544;790698672447914880;-238222;-242573;-300871;-472731;
2025-01-20T22:31:36.562;790698672466103552;-238451;-242651;-301048;-472652;
2025-01-20T22:31:36.580;790698672484292352;-238543;-242810;-301135;-472671;
2025-01-20T22:31:36.598;790698672502481024;-238680;-242860;-301277;-472744;
2025-01-20T22:31:36.617;790698672520669824;-238634;-242854;-301285;-472731;
2025-01-20T22:31:36.635;790698672538858496;-238592;-242747;-301150;-472702;
2025-01-20T22:31:36.653;790698672557047168;-238485;-242560;-301044;-472688;
2025-01-20T22:31:36.671;790698672575235968;-238342;-242401;-300915;-472719;
2025-01-20T22:31:36.689;790698672593424640;-238159;-242189;-300691;-472722;
2025-01-20T22:31:36.708;790698672611613440;-238026;-241995;-300486;-472714;
2025-01-20T22:31:36.726;790698672629802112;-237872;-241784;-300368;-472732;
2025-01-20T22:31:36.744;790698672647990912;-237638;-241603;-300147;-472737;
2025-01-20T22:31:36.762;790698672666179584;-237456;-241390;-300014;-472733;
2025-01-20T22:31:36.780;790698672684368384;-237274;-241108;-299802;-472699;
2025-01-20T22:31:36.799;790698672702557088;-237121;-240976;-299649;-472743;
2025-01-20T22:31:36.817;790698672720745088;-236977;-240727;-299514;-472723;
2025-01-20T22:31:36.835;790698672738933120;-236765;-240482;-299319;-472754;
2025-01-20T22:31:36.853;790698672757121152;-236483;-240180;-299169;-472682;
2025-01-20T22:31:36.871;790698672775309056;-236328;-239994;-298963;-472720;
2025-01-20T22:31:36.889;790698672793497088;-236141;-239787;-298824;-472708;
2025-01-20T22:31:36.908;790698672811685120;-235971;-239513;-298598;-472734;
2025-01-20T22:31:36.926;790698672829873152;-235781;-239315;-298503;-472784;
2025-01-20T22:31:36.944;790698672848061056;-235636;-239134;-298443;-472813;
2025-01-20T22:31:36.962;790698672866249088;-235631;-239080;-298555;-472744;
2025-01-20T22:31:36.980;790698672884437120;-235707;-239181;-298703;-472648;
2025-01-20T22:31:36.999;790698672902625152;-235918;-239285;-298876;-472700;
2025-01-20T22:31:37.017;790698672920813056;-236064;-239450;-299132;-472693;
2025-01-20T22:31:37.035;790698672939001088;-236121;-239462;-299185;-472714;
2025-01-20T22:31:37.053;790698672957189120;-236230;-239482;-299297;-472702;
2025-01-20T22:31:37.071;790698672975377152;-236288;-239485;-299376;-472710;
2025-01-20T22:31:37.090;790698672993565056;-236369;-239372;-299372;-472717;
2025-01-20T22:31:37.108;790698673011753088;-236304;-239334;-299315;-472711;
2025-01-20T22:31:37.126;790698673029941120;-236217;-239080;-299225;-472730;
2025-01-20T22:31:37.144;790698673048129152;-236008;-238804;-298984;-472750;
2025-01-20T22:31:37.162;790698673066317056;-235809;-238554;-298845;-472702;
2025-01-20T22:31:37.180;790698673084505088;-235591;-238367;-298760;-472725;
2025-01-20T22:31:37.199;790698673102693120;-235442;-238131;-298557;-472725;
2025-01-20T22:31:37.217;790698673120881152;-235271;-237985;-298424;-472734;
2025-01-20T22:31:37.235;790698673139069056;-234956;-237768;-298216;-472739;
2025-01-20T22:31:37.253;790698673157257088;-234800;-237652;-298105;-472699;
2025-01-20T22:31:37.271;790698673175445120;-234600;-237478;-297857;-472704;
2025-01-20T22:31:37.290;790698673193633152;-234462;-237322;-297815;-472766;
2025-01-20T22:31:37.308;790698673211821184;-234280;-237127;-297636;-472738;
2025-01-20T22:31:37.326;790698673230009088;-234118;-236946;-297507;-472782;
2025-01-20T22:31:37.344;790698673248197120;-233868;-236709;-297351;-472703;
2025-01-20T22:31:37.362;790698673266385152;-233671;-236510;-297161;-472731;
2025-01-20T22:31:37.381;790698673284573184;-233498;-236353;-296990;-472712;
2025-01-20T22:31:37.399;790698673302761088;-233334;-236111;-296864;-472727;
2025-01-20T22:31:37.417;790698673320949120;-233354;-236097;-296901;-472776;
2025-01-20T22:31:37.435;790698673339137152;-233336;-236202;-297015;-472744;
2025-01-20T22:31:37.453;790698673357325184;-233522;-236299;-297261;-472733;
2025-01-20T22:31:37.471;790698673375513088;-233710;-236484;-297523;-472697;
2025-01-20T22:31:37.490;790698673393701120;-233878;-236565;-297665;-472694;
2025-01-20T22:31:37.508;790698673411889152;-234063;-236690;-297869;-472714;
2025-01-20T22:31:37.526;790698673430077184;-234148;-236716;-297897;-472645;
2025-01-20T22:31:37.544;790698673448265088;-234154;-236669;-297884;-472671;
2025-01-20T22:31:37.562;790698673466453146;-234157;-236690;-297837;-472677;
2025-01-20T22:31:37.581;790698673484641792;-234130;-236579;-297823;-472739;
2025-01-20T22:31:37.599;790698673502830464;-234016;-236436;-297693;-472734;
2025-01-20T22:31:37.617;790698673521019264;-233870;-236269;-297615;-472691;
2025-01-20T22:31:37.635;790698673539207936;-233726;-236072;-297456;-472695;
2025-01-20T22:31:37.653;790698673557396736;-233489;-235866;-297271;-472727;
2025-01-20T22:31:37.672;790698673575585408;-233383;-235654;-297133;-472676;
2025-01-20T22:31:37.690;790698673593774208;-233207;-235494;-296986;-472740;
2025-01-20T22:31:37.708;790698673611962880;-233073;-235384;-296843;-472745;
2025-01-20T22:31:37.726;790698673630151680;-232913;-235199;-296709;-472755;
2025-01-20T22:31:37.744;790698673648340352;-232742;-234921;-296545;-472773;
2025-01-20T22:31:37.762;790698673666529024;-232687;-234752;-296447;-472760;
2025-01-20T22:31:37.781;790698673684717824;-232499;-234565;-296270;-472677;
2025-01-20T22:31:37.799;790698673702906496;-232351;-234396;-296180;-472695;
2025-01-20T22:31:37.817;790698673721095296;-232225;-234226;-296118;-472720;
2025-01-20T22:31:37.835;790698673739283968;-232033;-233957;-295995;-472778;
2025-01-20T22:31:37.853;790698673757472768;-231848;-233753;-295713;-472714;
2025-01-20T22:31:37.872;790698673775661440;-231792;-233594;-295654;-472720;
2025-01-20T22:31:37.890;790698673793850112;-231733;-233499;-295654;-472696;
2025-01-20T22:31:37.908;790698673812038912;-231822;-233567;-295887;-472705;
2025-01-20T22:31:37.926;790698673830227584;-232055;-233782;-296113;-472747;
2025-01-20T22:31:37.944;790698673848416384;-232287;-233983;-296368;-472716;
2025-01-20T22:31:37.963;790698673866605056;-232516;-234090;-296568;-472730;
2025-01-20T22:31:37.981;790698673884793856;-232769;-234252;-296871;-472672;
2025-01-20T22:31:37.999;790698673902982528;-232898;-234394;-296990;-472734;
2025-01-20T22:31:38.017;790698673921171200;-232982;-234460;-297153;-472730;
2025-01-20T22:31:38.035;790698673939360000;-233008;-234467;-297190;-472756;
2025-01-20T22:31:38.054;790698673957548672;-232948;-234316;-297066;-472725;
2025-01-20T22:31:38.072;790698673975737472;-232895;-234254;-297013;-472707;
2025-01-20T22:31:38.090;790698673993926144;-232755;-234105;-296863;-472671;
2025-01-20T22:31:38.108;790698674012114944;-232627;-233983;-296747;-472733;
2025-01-20T22:31:38.126;790698674030303616;-232537;-233842;-296618;-472693;
2025-01-20T22:31:38.144;790698674048492416;-232381;-233692;-296569;-472656;
2025-01-20T22:31:38.163;790698674066681088;-232251;-233493;-296338;-472680;
2025-01-20T22:31:38.181;790698674084869760;-232170;-233398;-296306;-472664;
2025-01-20T22:31:38.199;790698674103058560;-232066;-233259;-296158;-472656;
2025-01-20T22:31:38.217;790698674121247232;-231981;-233152;-296165;-472658;
2025-01-20T22:31:38.235;790698674139436032;-231920;-233087;-296092;-472716;
2025-01-20T22:31:38.254;790698674157624704;-231801;-232829;-295913;-472674;
2025-01-20T22:31:38.272;790698674175813504;-231725;-232777;-295820;-472675;
2025-01-20T22:31:38.290;790698674194002176;-231573;-232612;-295631;-472692;
2025-01-20T22:31:38.308;790698674212190976;-231373;-232486;-295574;-472716;
2025-01-20T22:31:38.326;790698674230379722;-231218;-232317;-295409;-472720;
2025-01-20T22:31:38.345;790698674248567808;-231133;-232234;-295384;-472707;
2025-01-20T22:31:38.363;790698674266755840;-231172;-232268;-295435;-472713;
2025-01-20T22:31:38.381;790698674284943872;-231330;-232396;-295647;-472719;
2025-01-20T22:31:38.399;790698674303131776;-231576;-232601;-295912;-472745;
2025-01-20T22:31:38.417;790698674321319808;-231806;-232846;-296209;-472741;
2025-01-20T22:31:38.435;790698674339507840;-232070;-233091;-296460;-472733;
2025-01-20T22:31:38.454;790698674357695872;-232279;-233321;-296750;-472782;
2025-01-20T22:31:38.472;790698674375883776;-232411;-233496;-296806;-472686;
2025-01-20T22:31:38.490;790698674394071808;-232552;-233546;-296815;-472713;
2025-01-20T22:31:38.508;790698674412259840;-232609;-233676;-296864;-472771;
2025-01-20T22:31:38.526;790698674430447872;-232579;-233680;-296847;-472690;
2025-01-20T22:31:38.545;790698674448635776;-232524;-233616;-296763;-472710;
2025-01-20T22:31:38.563;790698674466823808;-232391;-233512;-296604;-472698;
2025-01-20T22:31:38.581;790698674485011840;-232283;-233426;-296452;-472753;
2025-01-20T22:31:38.599;790698674503199872;-232218;-233306;-296364;-472744;
2025-01-20T22:31:38.617;790698674521387776;-232131;-233274;-296232;-472757;
2025-01-20T22:31:38.636;790698674539575808;-232067;-233197;-296152;-472796;
2025-01-20T22:31:38.654;790698674557763840;-232055;-233200;-296048;-472748;
2025-01-20T22:31:38.672;790698674575951872;-232071;-233213;-296046;-472704;
2025-01-20T22:31:38.690;790698674594139776;-232078;-233172;-296031;-472721;
2025-01-20T22:31:38.708;790698674612327808;-232087;-233216;-296113;-472753;
2025-01-20T22:31:38.726;790698674630515840;-232158;-233244;-296149;-472766;
2025-01-20T22:31:38.745;790698674648703872;-232164;-233284;-296045;-472751;
2025-01-20T22:31:38.763;790698674666891776;-232203;-233303;-296054;-472730;
2025-01-20T22:31:38.781;790698674685079808;-232242;-233394;-296096;-472748;
2025-01-20T22:31:38.799;790698674703267840;-232281;-233420;-296176;-472780;
2025-01-20T22:31:38.817;790698674721455872;-232500;-233702;-296339;-472777;
2025-01-20T22:31:38.836;790698674739643904;-232681;-233904;-296607;-472781;
2025-01-20T22:31:38.854;790698674757831808;-233005;-234276;-296907;-472714;
2025-01-20T22:31:38.872;790698674776019840;-233402;-234660;-297258;-472722;
2025-01-20T22:31:38.890;790698674794207872;-233710;-234971;-297598;-472669;
2025-01-20T22:31:38.908;790698674812395904;-234004;-235284;-297814;-472709;
2025-01-20T22:31:38.927;790698674830583808;-234314;-235558;-297982;-472743;
2025-01-20T22:31:38.945;790698674848771840;-234426;-235690;-298006;-472696;
2025-01-20T22:31:38.963;790698674866959872;-234555;-235826;-298034;-472710;
2025-01-20T22:31:38.981;790698674885147904;-234619;-235809;-297880;-472714;
2025-01-20T22:31:38.999;790698674903335808;-234631;-235865;-297856;-472729;
2025-01-20T22:31:39.017;790698674921523840;-234479;-235815;-297724;-472742;
2025-01-20T22:31:39.036;790698674939711872;-234410;-235781;-297590;-472764;
2025-01-20T22:31:39.054;790698674957899904;-234328;-235663;-297436;-472722;
2025-01-20T22:31:39.072;790698674976087808;-234175;-235536;-297336;-472699;
2025-01-20T22:31:39.090;790698674994275780;-233972;-235294;-297185;-472708;
2025-01-20T22:31:39.108;790698675012463744;-233878;-235158;-297174;-472764;
2025-01-20T22:31:39.127;790698675030651648;-233717;-234951;-297050;-472699;
2025-01-20T22:31:39.145;790698675048839552;-233545;-234761;-297020;-472744;
2025-01-20T22:31:39.163;790698675067027456;-233397;-234606;-296952;-472740;
2025-01-20T22:31:39.181;790698675085215360;-233219;-234391;-296813;-472692;
2025-01-20T22:31:39.199;790698675103403264;-233171;-234260;-296806;-472723;
2025-01-20T22:31:39.218;790698675121591168;-233140;-234158;-296724;-472749;
2025-01-20T22:31:39.236;790698675139779072;-233087;-234115;-296687;-472756;
2025-01-20T22:31:39.254;790698675157966976;-233185;-234308;-296870;-472754;
2025-01-20T22:31:39.272;790698675176154880;-233464;-234666;-297148;-472756;
2025-01-20T22:31:39.290;790698675194342784;-233818;-235116;-297565;-472682;
2025-01-20T22:31:39.308;790698675212530688;-234284;-235613;-298059;-472727;
2025-01-20T22:31:39.327;790698675230718592;-234797;-236225;-298462;-472751;
2025-01-20T22:31:39.345;790698675248906496;-235127;-236665;-298797;-472700;
2025-01-20T22:31:39.363;790698675267094400;-235478;-237053;-299037;-472738;
2025-01-20T22:31:39.381;790698675285282304;-235812;-237439;-299316;-472715;
2025-01-20T22:31:39.399;790698675303470208;-236058;-237697;-299372;-472719;
2025-01-20T22:31:39.418;790698675321658112;-236166;-237871;-299409;-472732;
2025-01-20T22:31:39.436;790698675339846016;-236154;-237905;-299352;-472760;
2025-01-20T22:31:39.454;790698675358033920;-236086;-237880;-299232;-472716;
2025-01-20T22:31:39.472;790698675376221824;-235858;-237643;-298961;-472680;
2025-01-20T22:31:39.490;790698675394409728;-235714;-237636;-298836;-472739;
2025-01-20T22:31:39.509;790698675412597632;-235491;-237453;-298613;-472705;
2025-01-20T22:31:39.527;790698675430785536;-235368;-237326;-298422;-472764;
2025-01-20T22:31:39.545;790698675448973440;-235275;-237253;-298221;-472768;
2025-01-20T22:31:39.563;790698675467161344;-235180;-237216;-298025;-472761;
2025-01-20T22:31:39.581;790698675485349248;-235028;-237224;-297811;-472761;
2025-01-20T22:31:39.599;790698675503537152;-234955;-237310;-297677;-472726;
2025-01-20T22:31:39.618;790698675521725056;-234796;-237314;-297453;-472756;
2025-01-20T22:31:39.636;790698675539912960;-234523;-237231;-297331;-472767;
2025-01-20T22:31:39.654;790698675558100864;-234072;-237036;-297005;-472768;
2025-01-20T22:31:39.672;790698675576288768;-233521;-237028;-296825;-472814;
2025-01-20T22:31:39.690;790698675594476672;-232982;-237137;-296621;-472768;
2025-01-20T22:31:39.709;790698675612664576;-232356;-237248;-296527;-472778;
2025-01-20T22:31:39.727;790698675630852480;-231653;-237510;-296477;-472794;
2025-01-20T22:31:39.745;790698675649040384;-230929;-237858;-296571;-472779;
2025-01-20T22:31:39.763;790698675667228198;-230126;-238099;-296578;-472773;
2025-01-20T22:31:39.781;790698675685416192;-229161;-238220;-296484;-472745;
2025-01-20T22:31:39.800;790698675703604224;-228396;-238198;-296234;-472796;
2025-01-20T22:31:39.818;790698675721792128;-227663;-238071;-296042;-472807;
2025-01-20T22:31:39.836;790698675739980160;-227013;-237882;-295859;-472801;
2025-01-20T22:31:39.854;790698675758168192;-226214;-237635;-295516;-472771;
2025-01-20T22:31:39.872;790698675776356096;-225430;-237305;-295169;-472765;
2025-01-20T22:31:39.890;790698675794544128;-224682;-236958;-294716;-472699;
2025-01-20T22:31:39.909;790698675812732160;-224026;-236633;-294413;-472708;
2025-01-20T22:31:39.927;790698675830920064;-223314;-236452;-294007;-472751;
2025-01-20T22:31:39.945;790698675849108096;-222578;-236177;-293554;-472719;
2025-01-20T22:31:39.963;790698675867296000;-221884;-235821;-293144;-472742;
2025-01-20T22:31:39.981;790698675885484032;-221324;-235461;-292790;-472793;
2025-01-20T22:31:40.000;790698675903672064;-220793;-235141;-292451;-472780;
2025-01-20T22:31:40.018;790698675921859968;-220378;-234797;-292127;-472712;
2025-01-20T22:31:40.036;790698675940048000;-220113;-234499;-291881;-472779;
2025-01-20T22:31:40.054;790698675958236032;-219894;-234267;-291641;-472710;
2025-01-20T22:31:40.072;790698675976423936;-219844;-234071;-291363;-472704;
2025-01-20T22:31:40.091;790698675994611968;-219793;-233765;-291093;-472710;
2025-01-20T22:31:40.109;790698676012800000;-219925;-233544;-290915;-472712;
2025-01-20T22:31:40.127;790698676030987904;-220220;-233431;-290842;-472759;
2025-01-20T22:31:40.145;790698676049175936;-220453;-233257;-290827;-472714;
2025-01-20T22:31:40.163;790698676067363968;-220929;-233217;-290921;-472792;
2025-01-20T22:31:40.182;790698676085551872;-221354;-233132;-290998;-472730;
2025-01-20T22:31:40.200;790698676103739904;-222008;-233189;-291277;-472675;
2025-01-20T22:31:40.218;790698676121927936;-222656;-233306;-291579;-472739;
2025-01-20T22:31:40.236;790698676140115840;-223318;-233550;-291963;-472792;
2025-01-20T22:31:40.254;790698676158303872;-224014;-233663;-292212;-472751;
2025-01-20T22:31:40.272;790698676176491776;-224568;-233777;-292395;-472799;
2025-01-20T22:31:40.291;790698676194679808;-225011;-233772;-292451;-472738;
2025-01-20T22:31:40.309;790698676212867840;-225408;-233772;-292410;-472716;
2025-01-20T22:31:40.327;790698676231055744;-225766;-233736;-292368;-472753;
2025-01-20T22:31:40.345;790698676249243776;-225937;-233681;-292240;-472734;
2025-01-20T22:31:40.363;790698676267431808;-226130;-233725;-292122;-472724;
2025-01-20T22:31:40.382;790698676285619712;-226303;-233804;-291952;-472766;
2025-01-20T22:31:40.400;790698676303807736;-226503;-233799;-291847;-472732;
2025-01-20T22:31:40.418;790698676321995776;-226706;-233804;-291790;-472795;
2025-01-20T22:31:40.436;790698676340183808;-226741;-233904;-291686;-472817;
2025-01-20T22:31:40.454;790698676358371840;-226811;-233824;-291587;-472776;
2025-01-20T22:31:40.473;790698676376559872;-226829;-233782;-291560;-472728;
2025-01-20T22:31:40.491;790698676394747904;-226781;-233591;-291492;-472706;
2025-01-20T22:31:40.509;790698676412935936;-226833;-233335;-291443;-472741;
2025-01-20T22:31:40.527;790698676431123968;-226721;-232953;-291325;-472778;
2025-01-20T22:31:40.545;790698676449312000;-226748;-232689;-291335;-472751;
2025-01-20T22:31:40.563;790698676467500032;-226834;-232418;-291461;-472808;
2025-01-20T22:31:40.582;790698676485688064;-227025;-232294;-291658;-472723;
2025-01-20T22:31:40.600;790698676503876096;-227355;-232396;-291942;-472687;
2025-01-20T22:31:40.618;790698676522064128;-227887;-232630;-292321;-472682;
2025-01-20T22:31:40.636;790698676540252160;-228276;-232900;-292611;-472730;
2025-01-20T22:31:40.654;790698676558440064;-228611;-233183;-292899;-472748;
2025-01-20T22:31:40.673;790698676576628096;-228879;-233446;-293045;-472719;
2025-01-20T22:31:40.691;790698676594816128;-228968;-233488;-293092;-472722;
2025-01-20T22:31:40.709;790698676613004160;-228996;-233499;-293214;-472770;
2025-01-20T22:31:40.727;790698676631192192;-229010;-233447;-293106;-472763;
2025-01-20T22:31:40.745;790698676649380224;-228926;-233258;-293028;-472726;
2025-01-20T22:31:40.764;790698676667568256;-228809;-233077;-292878;-472745;
2025-01-20T22:31:40.782;790698676685756288;-228669;-232886;-292712;-472712;
2025-01-20T22:31:40.800;790698676703944320;-228492;-232680;-292612;-472726;
2025-01-20T22:31:40.818;790698676722132352;-228422;-232515;-292512;-472750;
2025-01-20T22:31:40.836;790698676740320384;-228275;-232283;-292353;-472771;
2025-01-20T22:31:40.854;790698676758508416;-228104;-232142;-292277;-472745;
2025-01-20T22:31:40.873;790698676776696448;-227927;-232009;-292189;-472746;
2025-01-20T22:31:40.891;790698676794884480;-227819;-231952;-292106;-472731;
2025-01-20T22:31:40.909;790698676813072512;-227800;-232041;-292151;-472790;
2025-01-20T22:31:40.927;790698676831260544;-227763;-232165;-292141;-472809;
2025-01-20T22:31:40.945;790698676849448576;-227696;-232109;-291953;-472754;
2025-01-20T22:31:40.964;790698676867636608;-227631;-232101;-291931;-472747;
2025-01-20T22:31:40.982;790698676885824640;-227668;-232166;-291974;-472717;
2025-01-20T22:31:41.000;790698676904012672;-227766;-232358;-292109;-472758;
2025-01-20T22:31:41.018;790698676922200704;-228088;-232737;-292432;-472781;
2025-01-20T22:31:41.036;790698676940388736;-228376;-233028;-292759;-472781;
2025-01-20T22:31:41.055;790698676958576768;-228643;-233285;-293051;-472729;
2025-01-20T22:31:41.073;790698676976764732;-228870;-233518;-293271;-472708;
2025-01-20T22:31:41.091;790698676994952576;-229141;-233797;-293533;-472764;
2025-01-20T22:31:41.109;790698677013140480;-229341;-233941;-293646;-472721;
2025-01-20T22:31:41.127;790698677031328512;-229535;-234206;-293850;-472755;
2025-01-20T22:31:41.145;790698677049516416;-229591;-234320;-293824;-472763;
2025-01-20T22:31:41.164;790698677067704448;-229695;-234458;-293855;-472760;
2025-01-20T22:31:41.182;790698677085892352;-229693;-234496;-293838;-472690;
2025-01-20T22:31:41.200;790698677104080384;-229607;-234443;-293680;-472661;
2025-01-20T22:31:41.218;790698677122268288;-229585;-234369;-293597;-472762;
2025-01-20T22:31:41.236;790698677140456320;-229480;-234267;-293578;-472743;
2025-01-20T22:31:41.255;790698677158644224;-229387;-234100;-293400;-472722;
2025-01-20T22:31:41.273;790698677176832256;-229214;-233946;-293321;-472719;
2025-01-20T22:31:41.291;790698677195020160;-229062;-233679;-293104;-472691;
2025-01-20T22:31:41.309;790698677213208192;-228970;-233428;-293085;-472710;
2025-01-20T22:31:41.327;790698677231396096;-228765;-233141;-292853;-472734;
2025-01-20T22:31:41.346;790698677249584128;-228659;-232775;-292715;-472767;
2025-01-20T22:31:41.364;790698677267772032;-228464;-232468;-292577;-472721;
2025-01-20T22:31:41.382;790698677285960064;-228317;-232220;-292529;-472691;
2025-01-20T22:31:41.400;790698677304147968;-228386;-232112;-292562;-472677;
2025-01-20T22:31:41.418;790698677322336000;-228568;-232238;-292834;-472688;
2025-01-20T22:31:41.436;790698677340523904;-228875;-232457;-293175;-472711;
2025-01-20T22:31:41.455;790698677358711936;-229294;-232829;-293611;-472693;
2025-01-20T22:31:41.473;790698677376899840;-229716;-233180;-293959;-472690;
2025-01-20T22:31:41.491;790698677395087744;-230163;-233562;-294329;-472722;
2025-01-20T22:31:41.509;790698677413275776;-230501;-233932;-294655;-472713;
2025-01-20T22:31:41.527;790698677431463680;-230852;-234232;-294873;-472702;
2025-01-20T22:31:41.546;790698677449651712;-230934;-234363;-294966;-472728;
2025-01-20T22:31:41.564;790698677467839616;-231017;-234500;-295001;-472680;
2025-01-20T22:31:41.582;790698677486027648;-231004;-234513;-294981;-472676;
2025-01-20T22:31:41.600;790698677504215552;-231023;-234458;-294889;-472691;
2025-01-20T22:31:41.618;790698677522403584;-231033;-234471;-294900;-472771;
2025-01-20T22:31:41.637;790698677540591488;-230934;-234379;-294771;-472759;
2025-01-20T22:31:41.655;790698677558779520;-230775;-234212;-294584;-472687;
2025-01-20T22:31:41.673;790698677576967424;-230683;-234074;-294488;-472712;
2025-01-20T22:31:41.691;790698677595155456;-230547;-233909;-294365;-472755;
2025-01-20T22:31:41.709;790698677613343360;-230421;-233767;-294318;-472787;
2025-01-20T22:31:41.727;790698677631531392;-230327;-233644;-294203;-472856;
2025-01-20T22:31:41.746;790698677649719296;-230179;-233403;-294079;-472773;
2025-01-20T22:31:41.764;790698677667907328;-229978;-233392;-293970;-472715;
2025-01-20T22:31:41.782;790698677686095232;-229913;-233319;-293851;-472723;
2025-01-20T22:31:41.800;790698677704283334;-229866;-233262;-293864;-472720;
2025-01-20T22:31:41.818;790698677722471296;-229965;-233413;-293976;-472737;
2025-01-20T22:31:41.837;790698677740659200;-230210;-233747;-294236;-472731;
2025-01-20T22:31:41.855;790698677758847232;-230521;-234143;-294570;-472747;
2025-01-20T22:31:41.873;790698677777035136;-230961;-234614;-294915;-472726;
2025-01-20T22:31:41.891;790698677795223168;-231387;-235095;-295227;-472713;
2025-01-20T22:31:41.909;790698677813411072;-231803;-235622;-295554;-472707;
2025-01-20T22:31:41.928;790698677831599104;-232191;-235973;-295747;-472763;
2025-01-20T22:31:41.946;790698677849787008;-232499;-236240;-295920;-472747;
2025-01-20T22:31:41.964;790698677867975040;-232716;-236449;-296027;-472742;
2025-01-20T22:31:41.982;790698677886162944;-232715;-236515;-295990;-472694;
2025-01-20T22:31:42.000;790698677904350976;-232878;-236554;-296039;-472738;
2025-01-20T22:31:42.018;790698677922538880;-232860;-236587;-295929;-472719;
2025-01-20T22:31:42.037;790698677940726912;-232866;-236583;-295844;-472685;
2025-01-20T22:31:42.055;790698677958914816;-232799;-236483;-295741;-472724;
2025-01-20T22:31:42.073;790698677977102848;-232642;-236340;-295595;-472740;
2025-01-20T22:31:42.091;790698677995290752;-232502;-236168;-295443;-472652;
2025-01-20T22:31:42.109;790698678013478784;-232313;-236039;-295331;-472704;
2025-01-20T22:31:42.128;790698678031666688;-232167;-235896;-295172;-472699;
2025-01-20T22:31:42.146;790698678049854720;-232096;-235701;-295081;-472731;
2025-01-20T22:31:42.164;790698678068042624;-231963;-235562;-294945;-472733;
2025-01-20T22:31:42.182;790698678086230656;-231799;-235449;-294817;-472707;
2025-01-20T22:31:42.200;790698678104418560;-231699;-235238;-294714;-472700;
2025-01-20T22:31:42.219;790698678122606464;-231646;-235185;-294658;-472742;
